time (s)	magX	magY	magZ
3049.194216	-239.995331	-73.117477	117.941559
3049.197544	-243.326691	-73.818817	121.448273
3049.200904	-246.424316	-74.520164	124.136749
3049.204244	-249.989471	-75.104614	127.877258
3049.207626	-253.203979	-76.039742	131.091751
3049.211000	-257.528931	-76.741081	135.475159
3049.214302	-261.737000	-77.442429	138.455872
3049.217543	-264.834595	-78.319115	143.774399
3049.220880	-269.042664	-79.488022	148.625351
3049.224230	-272.958496	-80.423141	153.300980
3049.227586	-276.582123	-81.825829	158.444183
3049.230903	-281.023956	-82.702507	163.470474
3049.234295	-284.998230	-83.345413	170.191696
3049.237625	-289.206299	-84.572769	176.036224
3049.240931	-294.232635	-85.741676	182.056091
3049.244207	-298.616028	-87.085915	188.426636
3049.247539	-303.583862	-88.137932	195.849213
3049.251319	-307.149048	-89.131500	203.096420
3049.254286	-311.824677	-90.651077	209.817657
3049.257632	-317.493866	-91.644646	217.357086
3049.260969	-321.585052	-92.988892	225.305664
3049.264714	-326.728241	-94.274689	232.962006
3049.268034	-331.286957	-95.502045	241.962585
3049.271411	-335.611938	-97.138519	250.670929
3049.274774	-340.404449	-98.248978	259.671539
3049.278076	-345.080078	-98.658096	269.490356
3049.281462	-349.697235	-100.060783	278.666260
3049.284770	-354.255981	-101.697250	288.309753
3049.288119	-359.048523	-102.340149	297.777893
3049.291460	-363.198151	-103.567505	308.181183
3049.294814	-367.990662	-104.794861	318.175323
3049.298199	-372.023407	-106.489769	329.104614
3049.301515	-376.815918	-107.132668	339.858551
3049.304806	-381.316193	-107.366455	351.547638
3049.308174	-384.647583	-108.360023	362.301575
3049.311529	-389.031006	-108.944473	373.464630
3049.314886	-391.836365	-109.061363	385.679718
3049.318196	-395.985992	-109.704262	397.719421
3049.321514	-399.317383	-109.879601	409.642334
3049.324865	-403.291656	-110.113380	422.208069
3049.328191	-407.032166	-110.464050	435.241364
3049.331526	-409.311493	-110.054939	448.800720
3049.334869	-412.175323	-108.886032	463.645813
3049.338167	-415.565186	-109.587372	478.081787
3049.341520	-417.260101	-108.944473	492.926941
3049.344834	-419.773254	-107.775566	508.707214
3049.348165	-421.585052	-107.541786	523.903015
3049.351514	-422.344849	-106.781998	539.332520
3049.354823	-422.987701	-105.437752	556.690857
3049.358233	-424.039764	-104.502625	573.055481
3049.361535	-424.039764	-103.801285	590.881348
3049.364842	-423.163055	-101.638802	608.940918
3049.368210	-423.163055	-99.768555	627.585022
3049.371551	-421.351257	-98.190529	645.703064
3049.374853	-418.487427	-96.144943	664.288696
3049.378645	-416.091187	-94.099358	682.874329
3049.381952	-412.818268	-92.053772	701.167725
3049.384893	-408.142639	-90.066628	720.454712
3049.388670	-402.882538	-87.202805	740.559937
3049.391963	-396.979553	-84.514320	758.736450
3049.395330	-390.550568	-81.884277	778.374084
3049.398633	-383.186462	-78.494446	797.310303
3049.401996	-375.004120	-75.805962	815.662170
3049.405318	-365.769745	-72.299240	834.773804
3049.408628	-356.593811	-67.857399	852.541199
3049.411989	-346.132111	-64.584450	869.899414
3049.415320	-334.618347	-60.551720	886.381042
3049.418698	-323.221497	-56.285217	902.921082
3049.422061	-310.363556	-52.194038	918.409119
3049.425387	-296.687317	-48.219757	933.546509
3049.428698	-283.537109	-43.251900	947.514893
3049.432022	-269.977814	-37.699593	960.489807
3049.435310	-254.898895	-33.491524	973.113953
3049.438671	-239.001770	-27.822327	984.686157
3049.441951	-223.513733	-22.679134	995.030945
3049.445326	-207.558151	-16.893045	1003.739319
3049.448642	-191.427246	-10.580947	1011.512512
3049.451953	-174.653427	-4.327294	1020.571594
3049.455334	-157.295151	1.751022	1026.883667
3049.458630	-139.469315	7.887785	1033.078979
3049.462039	-121.877274	13.615431	1037.053223
3049.465390	-104.168320	20.453535	1040.033936
3049.468730	-85.173584	27.116304	1043.891357
3049.472040	-65.828171	33.545296	1046.287598
3049.475398	-47.008770	39.857391	1045.586182
3049.478709	-27.780247	46.169487	1044.358887
3049.482175	-8.084164	53.299828	1043.482178
3049.485536	11.553474	59.319695	1040.267822
3049.488872	30.548216	65.514908	1035.708984
3049.492185	52.114552	71.710114	1031.910034
3049.495511	70.817062	77.729988	1025.188843
3049.498810	91.039154	83.223846	1017.999939
3049.502153	110.618355	88.834595	1010.226746
3049.505888	129.613083	93.802452	1000.524841
3049.509257	148.140259	99.471657	990.413757
3049.512625	167.251892	103.621269	978.607788
3049.516005	186.129745	108.472244	965.632996
3049.519372	203.663345	111.920517	952.658142
3049.522667	220.378723	115.836357	939.975403
3049.525993	237.970779	119.401512	924.019836
3049.529329	253.867889	121.856224	907.362915
3049.532654	269.122162	125.187614	892.342529
3049.536019	283.032135	128.402100	874.808838
3049.539383	296.416138	129.512558	857.976562
3049.542727	309.332550	131.499695	841.904114
3049.546103	321.196960	132.551712	824.019836
3049.549429	332.535339	134.305084	805.609558
3049.552757	342.646393	135.532440	787.316162
3049.556197	352.640564	136.058441	768.730591
3049.559493	360.647583	136.876678	751.196960
3049.562820	369.005249	137.344238	732.669800
3049.566161	375.551147	137.987137	714.201050
3049.569512	382.038574	137.811798	697.427246
3049.572878	387.824677	138.630035	680.361206
3049.576227	392.500305	138.630035	662.184692
3049.579509	396.591461	138.162476	645.410889
3049.582871	399.922852	138.454697	628.403259
3049.586203	403.429565	138.863815	611.863220
3049.589501	405.650482	138.454697	595.790771
3049.592825	408.046753	138.337814	580.010498
3049.596119	409.449432	137.519562	562.769104
3049.599563	410.267670	137.110458	546.755127
3049.603329	410.969025	136.526001	531.442383
3049.606653	410.735229	136.642899	516.772644
3049.609986	410.735229	135.532440	500.758606
3049.613322	410.209229	135.415543	485.971924
3049.616656	409.858551	134.597305	471.419067
3049.619990	408.280518	134.012848	457.041504
3049.623365	406.877838	133.253052	441.611908
3049.626660	404.247803	131.850372	427.585022
3049.629986	401.617767	130.915237	413.149017
3049.633355	399.630615	129.746338	400.875519
3049.636655	397.175903	128.752777	387.316193
3049.639992	395.071869	127.525429	374.399750
3049.643319	391.857391	126.181190	361.132690
3049.646674	387.883087	124.836937	349.618927
3049.649983	384.493256	122.908241	336.936279
3049.653322	381.337219	120.979546	325.013428
3049.656656	377.246063	119.518410	312.155457
3049.659993	373.973114	117.414375	302.044434
3049.663319	369.180603	115.485680	289.887756
3049.666655	365.732330	113.732315	280.302734
3049.669986	361.874908	111.511398	270.659271
3049.673321	357.140869	109.991814	260.548218
3049.676679	352.815887	107.420219	250.670929
3049.679982	348.257141	105.725304	241.495026
3049.683322	343.581512	104.030396	232.436005
3049.686646	339.315002	101.400352	224.662750
3049.689983	334.931610	99.179428	216.538864
3049.693343	330.606659	97.542953	208.999405
3049.696653	326.047943	95.380478	201.459961
3049.699986	322.132080	93.802452	195.030975
3049.703317	317.631775	92.399765	188.485077
3049.706645	313.423706	90.412628	181.763870
3049.709989	309.332550	88.776161	175.977783
3049.713317	305.533600	87.315018	171.009933
3049.716648	301.150208	85.737000	165.399170
3049.720011	297.585052	83.808296	160.489761
3049.723320	293.318512	83.223846	155.755692
3049.727068	289.227356	81.470490	150.028046
3049.730400	285.486847	80.535362	146.345993
3049.733759	282.681488	79.308006	141.436584
3049.737094	278.824097	77.905319	136.877838
3049.740426	274.849792	76.911751	133.020447
3049.743762	271.635315	75.801285	129.396835
3049.747143	267.777924	74.690826	125.831665
3049.750401	263.920502	73.931038	122.149612
3049.753739	260.764465	73.229691	118.409119
3049.757070	257.666870	71.885452	114.785492
3049.760402	254.043259	70.950325	111.161896
3049.763759	250.244293	70.482765	107.362946
3049.767073	246.912918	69.313850	104.265335
3049.770399	243.815308	68.554062	101.401520
3049.773749	240.893036	67.443596	97.953247
3049.777090	237.970779	66.800705	94.914078
3049.780440	234.931610	65.398018	91.465805
3049.783736	231.307999	64.053772	89.011108
3049.787072	228.444183	63.352425	86.907074
3049.790400	225.346573	62.417297	83.283463
3049.793743	221.781403	61.540627	80.536530
3049.797062	219.911148	60.137932	77.438919
3049.800434	216.579773	59.436584	75.627121
3049.803733	213.540604	58.852135	73.523071
3049.807087	210.910583	58.092346	70.893051
3049.810422	208.689651	56.806549	68.789017
3049.814232	205.533600	55.754532	66.743423
3049.817520	203.429565	55.228523	63.938046
3049.820815	200.799515	54.059616	62.301571
3049.824144	198.870834	52.890709	60.431324
3049.827502	196.065460	51.721802	59.028637
3049.830852	194.019867	51.429573	57.567501
3049.834278	191.448273	50.728226	55.521915
3049.837591	190.162476	50.085327	54.177670
3049.840930	188.175323	49.676208	53.242542
3049.844153	186.772644	48.507301	52.132084
3049.847487	185.136169	47.981300	50.729397
3049.850858	182.915237	46.929283	49.560490
3049.854174	181.570999	46.403275	48.976040
3049.857501	180.343643	46.169487	47.982464
3049.860877	179.174744	45.292816	47.398014
3049.864269	177.538269	45.409706	45.936871
3049.867581	176.369370	45.117477	45.235531
3049.870820	175.142029	43.890121	44.826412
3049.874147	174.382233	43.539452	44.241962
3049.877480	173.037979	43.597893	43.715954
3049.880836	171.459961	43.305672	42.430157
3049.884176	170.466385	43.247223	42.079479
3049.887563	168.829926	42.954994	41.728809
3049.890880	168.070145	42.604324	39.858562
3049.894197	167.427231	42.428986	40.150791
3049.897925	165.732330	42.019867	39.449444
3049.901282	164.563400	41.610756	39.390995
3049.904647	163.745178	41.493866	38.046757
3049.907995	163.043839	41.552307	37.579197
3049.910938	161.641144	41.143188	37.286968
3049.914644	160.413788	41.318527	36.410282
3049.917952	159.770889	40.909409	35.825825
3049.921263	158.660431	40.675629	35.533604
3049.924636	157.842194	40.208069	34.890705
3049.928031	156.556396	39.798943	34.247807
3049.931349	156.205719	39.623611	34.014027
3049.934658	154.686142	39.272942	32.845119
3049.937983	154.277023	38.746933	32.903561
3049.941266	153.225021	38.279366	31.676212
3049.944662	153.400345	37.811806	30.916424
3049.947979	152.465225	37.870247	31.617764
3049.951337	152.172989	37.285797	30.741085
3049.954691	151.179428	37.519577	29.689068
3049.957993	150.419647	36.467560	30.390415
3049.961287	150.302750	35.883110	28.987728
3049.964684	149.659851	36.409119	28.812389
3049.967982	149.601395	36.233780	29.221508
3049.971380	149.309174	36.175339	29.630619
3049.974729	149.075394	35.064873	28.753948
3049.978079	148.958511	35.473991	28.461716
3049.981473	149.016953	35.064873	27.701923
3049.984786	148.432495	35.240211	27.935703
3049.988088	149.075394	34.714203	28.403275
3049.991421	148.724716	34.714203	28.578609
3049.994774	148.958511	35.123322	28.286385
3049.998086	148.900055	34.538864	28.695499
3050.001400	149.367615	34.421974	28.637058
3050.004759	150.010513	34.714203	30.039745
3050.008129	149.601395	34.480423	30.039745
3050.011864	150.419647	34.831093	29.805965
3050.015210	150.828751	34.129745	30.273525
3050.018560	150.711853	34.480423	30.448856
3050.021840	150.887207	35.123322	30.448856
3050.025128	152.056107	34.597313	31.383984
3050.028432	152.289886	35.006432	31.091763
3050.031758	152.348328	35.532433	31.851543
3050.035106	153.108124	35.064873	32.436001
3050.038399	153.984802	35.357101	32.319111
3050.041714	153.984802	35.649330	32.903561
3050.044993	154.393921	34.947983	32.319111
3050.048326	154.686142	35.415543	32.845119
3050.052053	155.679718	35.590881	33.312679
3050.055330	155.329056	35.883110	33.955578
3050.058698	155.855042	35.824661	34.072468
3050.062072	156.848618	35.707771	34.014027
3050.065375	157.374634	35.707771	34.540028
3050.068699	158.368210	35.883110	34.715366
3050.072070	158.835770	36.000000	34.656925
3050.075418	159.653992	36.058441	35.066044
3050.078793	159.595566	35.941551	34.832264
3050.082078	160.764465	36.409119	36.351841
3050.085401	161.465805	35.824661	35.825825
3050.088760	162.693161	36.467560	36.059612
3050.092098	163.628281	36.350670	37.345409
3050.095395	164.037399	36.116890	36.644062
3050.098768	165.381653	36.116890	38.514317
3050.102063	166.492111	36.584450	38.163647
3050.105421	167.836349	36.409119	39.449444
3050.108748	169.005264	36.233780	39.157215
3050.112046	169.998825	35.883110	40.267681
3050.115348	171.343079	35.357101	41.495029
3050.118629	173.447113	35.941551	42.605495
3050.122086	174.791351	35.766220	44.008183
3050.125404	176.427811	36.175339	44.183514
3050.128687	177.772049	36.409119	45.352421
3050.132411	179.759201	36.467560	47.339565
3050.135759	181.278778	36.584450	49.618931
3050.139089	183.032135	36.993568	50.086498
3050.142421	185.077728	37.110458	51.664524
3050.145754	187.181763	37.811806	53.242542
3050.149048	189.168900	37.870247	54.995907
3050.152378	191.623596	38.279366	56.106365
3050.155678	192.967850	38.337814	58.444180
3050.159033	195.948563	38.396255	59.320866
3050.162385	198.169495	38.513145	60.898884
3050.165694	200.682632	38.922272	62.301571
3050.169003	202.786667	39.623611	64.464050
3050.172320	205.299820	40.091179	66.743423
3050.175659	207.111633	40.149620	68.496780
3050.179037	209.507874	40.266510	70.600815
3050.182391	212.137924	40.383400	72.003510
3050.185708	214.709518	40.909409	74.984207
3050.189105	217.573334	41.143188	76.328461
3050.192410	219.326706	41.669197	78.023376
3050.195738	221.606079	41.727646	80.478088
3050.199038	224.352997	42.370537	82.465210
3050.202402	227.158371	42.312096	85.738174
3050.205742	230.139099	42.428986	86.965515
3050.209059	232.710693	43.247223	89.946228
3050.212794	235.282288	42.954994	91.933365
3050.216103	238.321442	43.422562	95.147873
3050.219464	241.419052	43.481003	97.602570
3050.222792	244.516663	44.123909	100.291061
3050.226110	247.088257	43.890121	103.388657
3050.229455	250.244293	43.364113	105.901810
3050.232784	253.517227	44.065460	109.233200
3050.236087	257.023956	44.416130	112.915253
3050.239438	259.829346	44.182350	115.779068
3050.242766	263.686737	44.065460	119.519577
3050.246094	267.076569	44.065460	123.552307
3050.249411	271.167755	44.240799	128.169479
3050.252709	275.025146	44.007019	132.026886
3050.256034	278.882507	43.773232	136.410278
3050.259327	283.149048	44.065460	142.021027
3050.262790	285.954407	43.656342	146.229095
3050.266084	290.104034	43.714783	152.132080
3050.269425	294.662781	43.831680	157.509064
3050.272813	298.870850	44.065460	162.827576
3050.276151	302.786682	43.890121	169.431900
3050.279456	307.696075	43.130333	175.685547
3050.282813	311.787262	43.773232	181.997665
3050.286132	315.819977	43.188782	188.718872
3050.289865	320.787842	43.539452	195.323181
3050.293255	325.580353	42.954994	202.453522
3050.296627	329.963776	43.130333	210.577454
3050.299920	333.879608	43.188782	217.999985
3050.303257	338.321442	42.545883	225.773224
3050.306590	343.230865	42.662773	234.364685
3050.309919	347.497375	43.188782	242.722382
3050.313258	351.939209	42.896553	250.963165
3050.316587	356.731720	42.896553	259.379303
3050.319956	361.115143	42.019867	269.724121
3050.323257	365.323181	42.253647	278.315613
3050.326588	369.881927	40.734070	287.725311
3050.329926	374.090027	41.143188	297.018097
3050.333266	378.590271	40.149620	307.713623
3050.336582	382.447693	39.915840	317.415527
3050.339918	385.837524	39.039162	328.344818
3050.343257	390.571594	37.928696	339.157196
3050.346585	394.370544	37.168907	348.800690
3050.349916	397.760376	35.824661	360.255981
3050.353254	401.500885	34.889534	372.704834
3050.356579	404.364685	33.136177	385.095276
3050.359910	408.455872	32.084160	396.024506
3050.363264	410.969025	30.097021	408.882538
3050.366606	414.241974	27.992987	422.850952
3050.369921	417.398010	25.830507	436.176483
3050.373248	419.385162	24.194036	450.963165
3050.376585	421.781403	21.797781	464.522522
3050.379910	423.651642	18.817064	479.133850
3050.383249	425.229675	16.362360	494.037415
3050.387007	426.866150	13.732321	510.694336
3050.390343	427.801270	10.926943	526.649902
3050.393681	428.151947	7.537111	543.131531
3050.397006	427.392151	3.679719	558.970154
3050.400357	427.158386	0.406779	576.445374
3050.403693	427.158386	-3.509059	594.095886
3050.407026	425.054352	-7.483343	611.512573
3050.410394	423.534760	-12.217417	630.974854
3050.413664	421.372314	-16.133255	648.566895
3050.416998	416.872009	-20.341320	667.503235
3050.420344	413.774414	-24.549387	685.738159
3050.423664	409.624786	-29.283461	704.849792
3050.427006	403.780243	-34.017532	723.260071
3050.430331	397.643494	-38.693161	742.079529
3050.433663	390.688477	-43.602570	759.846863
3050.437039	384.084167	-48.336647	779.309143
3050.440369	375.843353	-53.772064	797.602600
3050.443689	367.018127	-58.739922	815.428406
3050.447034	358.543549	-63.590881	832.669800
3050.450339	348.724701	-68.850967	850.086487
3050.453663	337.620087	-74.520164	867.152527
3050.456994	325.931030	-80.306252	882.582153
3050.460334	314.358826	-85.624779	898.362305
3050.463662	302.436005	-91.586205	913.149048
3050.467011	289.285797	-96.787842	928.578613
3050.470329	277.129150	-102.983047	942.313232
3050.473722	262.926941	-108.769142	956.456970
3050.477520	248.374039	-114.789009	968.146118
3050.480380	233.470490	-121.334892	978.958496
3050.484085	217.748672	-127.997658	990.647522
3050.487420	202.377548	-134.134430	1001.109314
3050.490749	186.012848	-140.271194	1010.460510
3050.494114	169.063705	-147.284637	1019.168884
3050.497466	151.237869	-154.414963	1025.130371
3050.500834	134.113388	-160.551727	1031.968506
3050.504164	116.404434	-167.039154	1037.696045
3050.507499	97.935707	-173.701935	1041.611938
3050.510757	79.116302	-180.306259	1045.703125
3050.514080	60.647575	-186.852142	1048.391602
3050.517419	40.600819	-193.339569	1049.326782
3050.520775	22.073641	-200.411453	1049.502075
3050.524139	2.085327	-206.080658	1048.742310
3050.527499	-17.435421	-211.691422	1047.456421
3050.530843	-37.131504	-217.769730	1043.599121
3050.534103	-57.119808	-223.497391	1039.098877
3050.537423	-76.406784	-229.225006	1032.845093
3050.540742	-96.044418	-233.900665	1026.182373
3050.544110	-115.097610	-238.167160	1019.285828
3050.547440	-134.150787	-243.076584	1010.402039
3050.550890	-152.151962	-246.817078	1000.992371
3050.554155	-170.445358	-250.557587	990.413757
3050.557510	-187.745178	-253.713623	978.198669
3050.560799	-203.583878	-256.343658	965.282288
3050.564548	-220.240784	-258.798370	951.664490
3050.567877	-236.605499	-260.727051	938.689636
3050.571290	-251.684387	-262.305084	923.143127
3050.574628	-265.886627	-264.175323	907.596741
3050.577567	-279.095245	-264.584442	891.173584
3050.581186	-292.362366	-264.876678	874.925781
3050.584567	-303.700775	-265.461121	858.619568
3050.587855	-315.331390	-265.694916	841.378174
3050.591265	-325.676208	-265.928680	824.662720
3050.594645	-334.793701	-264.759796	807.772034
3050.597947	-344.320282	-264.818237	790.063171
3050.601259	-352.385742	-262.889526	773.289246
3050.604627	-359.106934	-261.779083	755.580322
3050.608019	-365.828186	-261.253052	738.864990
3050.611332	-372.666290	-259.207458	721.506714
3050.614644	-377.458771	-257.863251	704.382263
3050.617960	-382.426666	-256.226776	687.023987
3050.621280	-387.277618	-254.239624	670.600830
3050.624604	-390.024536	-252.427826	654.294556
3050.627927	-393.531281	-250.674454	638.631226
3050.631292	-396.161346	-248.862671	620.454712
3050.634596	-398.031586	-245.765060	604.440674
3050.637971	-399.668030	-244.420807	588.426636
3050.641268	-401.655151	-241.615433	572.997070
3050.644609	-401.421417	-238.810059	555.989441
3050.647943	-402.181152	-236.472244	539.624817
3050.651321	-402.999420	-233.842194	524.545837
3050.654680	-402.298096	-230.919922	509.466980
