time (s)	magX	magY	magZ
3333.146790	209.975449	26.414961	66.158966
3333.150152	206.760956	26.005842	63.762707
3333.153465	203.838684	26.356516	61.015774
3333.156845	200.507309	26.064291	58.677959
3333.160115	198.111038	25.012274	56.281704
3333.163471	195.481003	25.538282	54.469898
3333.167250	192.383392	25.362944	52.424313
3333.170143	189.870239	24.836939	50.378727
3333.173489	186.947968	24.544710	49.560490
3333.177249	184.317947	23.784922	46.872005
3333.180615	182.272354	24.077147	45.644650
3333.183974	180.460541	24.310930	43.891293
3333.187297	178.590302	23.784922	43.073055
3333.190608	176.369370	23.843367	41.962589
3333.193892	174.499115	23.609587	39.917011
3333.197233	172.804199	23.726477	39.274105
3333.200573	170.817062	23.258913	38.338978
3333.203870	169.472824	23.258913	36.527172
3333.207324	167.368790	23.434248	35.592045
3333.210616	165.849213	23.200468	35.416714
3333.213934	164.271194	22.791349	34.423138
3333.217331	161.816483	22.791349	34.364697
3333.220667	161.290466	22.382235	33.663357
3333.223965	160.063126	22.732904	32.611340
3333.227336	158.251312	22.557570	31.793102
3333.230628	157.023972	23.083578	30.624195
3333.233958	155.621262	22.849794	30.799526
3333.237282	154.452362	22.791349	29.981297
3333.240588	153.458801	22.557570	29.864407
3333.243927	152.523666	22.616014	28.520161
3333.247223	151.179428	23.025133	29.046169
3333.250656	150.185852	22.499125	28.520161
3333.253990	148.432495	22.499125	27.701923
3333.257304	147.555817	22.499125	26.533016
3333.260671	146.796021	22.440680	25.364109
3333.263983	145.685562	22.849794	25.539448
3333.267798	144.575104	22.791349	24.779655
3333.271090	143.523087	22.499125	23.026299
3333.274397	142.295731	21.563997	22.734074
3333.277750	141.068375	22.148451	21.682056
3333.281072	140.600815	22.440680	21.506718
3333.284435	139.198135	22.031561	21.857391
3333.287717	138.496780	22.148451	21.039154
3333.291019	137.678543	21.739336	20.746933
3333.294369	137.152542	21.856226	20.045589
3333.297650	135.691406	22.148451	19.110462
3333.301015	135.165405	22.148451	18.526005
3333.304366	134.814728	21.856226	18.818233
3333.307637	133.821152	22.031561	18.058441
3333.310987	132.886032	21.154882	17.883106
3333.314310	132.243134	20.979544	17.766216
3333.317596	132.301575	21.505552	17.590878
3333.320958	131.541794	20.921099	17.707767
3333.324752	131.366455	20.628874	17.298653
3333.328279	131.308014	21.330217	17.590878
3333.331614	131.074219	21.447107	16.889534
3333.334954	130.314438	21.563997	16.889534
3333.338281	130.431320	20.979544	17.415546
3333.341617	130.139099	21.622442	16.597309
3333.344953	129.963760	21.154882	17.532436
3333.348336	130.431320	21.622442	17.357098
3333.351615	130.840439	21.096437	17.240208
3333.354983	130.606659	21.271772	17.240208
3333.358281	131.015778	21.622442	17.532436
3333.361615	131.074219	21.973116	16.714199
3333.364941	131.191116	22.323790	17.707767
3333.368292	131.249557	21.797781	18.292221
3333.371615	131.600235	22.265341	19.344242
3333.374948	131.658676	22.323790	19.227352
3333.378282	132.184677	22.382235	19.052013
3333.381614	132.067795	22.031561	18.701344
3333.384944	132.886032	21.973116	19.402687
3333.388279	133.119812	22.908239	19.753357
3333.391611	133.295151	22.908239	19.870251
3333.394949	133.704269	22.791349	19.694916
3333.398292	134.639389	24.252485	20.162479
3333.401613	134.697830	24.135592	19.811806
3333.404934	135.516068	23.901812	19.811806
3333.408273	135.691406	24.135592	19.928696
3333.411605	135.866745	24.135592	19.694916
3333.414993	136.334305	24.486265	20.630043
3333.418277	136.743423	24.895384	20.220921
3333.421611	137.152542	24.778490	19.753357
3333.424939	137.210983	24.544710	20.513149
3333.428278	137.561661	24.486265	21.214497
3333.431607	138.496780	24.544710	20.980713
3333.434943	138.672119	25.246054	21.506718
3333.438270	140.016373	25.421389	20.922264
3333.441622	141.068375	25.479837	21.915840
3333.444937	140.834595	25.304499	22.324955
3333.448270	142.354172	25.304499	21.915840
3333.451607	143.230850	25.655172	23.026299
3333.454939	143.523087	25.713617	22.792515
3333.458686	144.808884	25.713617	24.019871
3333.462052	145.159561	26.298071	24.195202
3333.465383	146.562241	26.648741	24.896549
3333.468715	147.731155	26.239626	25.773232
3333.472070	148.607834	26.765635	25.656342
3333.475361	151.062531	27.057859	27.234360
3333.478692	152.289886	27.817648	28.344826
3333.482023	153.634125	27.116304	28.344826
3333.485364	155.445938	27.934538	30.098186
3333.488700	156.965515	28.168322	30.857975
3333.492025	157.900650	28.402102	31.968433
3333.495358	159.653992	29.337233	33.429569
3333.498711	160.939804	29.220339	34.189358
3333.502062	163.452942	29.629457	35.182934
3333.505378	165.323196	30.330801	36.176502
3333.508698	166.725891	30.739920	37.696087
3333.512020	169.239044	30.973700	38.864994
3333.515369	170.875519	31.733488	40.384571
3333.518696	173.213333	31.908827	41.436588
3333.522063	175.200455	31.850382	42.956165
3333.525351	177.538269	32.493279	43.715954
3333.528686	179.350082	32.960838	45.878429
3333.532024	181.687897	33.720634	47.222675
3333.535373	184.201050	34.947983	49.268261
3333.538727	186.538864	35.298653	50.670948
3333.542066	188.116882	35.766220	51.606075
3333.545803	190.630035	36.409119	53.476322
3333.549108	193.143188	37.110458	55.288136
3333.552449	196.123901	37.461136	56.749271
3333.555791	197.818817	38.396255	58.151958
3333.559146	200.799515	38.630035	61.249561
3333.562527	203.254227	39.798943	62.301571
3333.565887	206.059601	39.682053	63.412037
3333.569171	208.631195	40.675629	66.451202
3333.572454	211.261246	40.967850	68.321457
3333.575779	213.365280	41.084740	70.074799
3333.579107	216.053772	41.610756	72.821732
3333.582472	218.625366	42.838104	75.685562
3333.585790	222.658096	43.013443	78.900055
3333.589190	225.638809	43.247223	80.478088
3333.592517	229.087082	43.656342	84.452362
3333.595831	232.067795	44.825249	87.549973
3333.599098	235.749847	44.825249	90.063110
3333.602442	238.789001	45.994156	92.926941
3333.605829	242.704834	46.052597	96.492111
3333.609146	246.153122	46.812393	100.524841
3333.612516	250.302750	47.221504	104.440674
3333.615854	253.984787	49.033318	108.940964
3333.619184	258.192871	49.033318	113.032150
3333.622862	262.400940	50.436005	118.175339
3333.626223	266.316772	51.312683	123.026291
3333.629547	270.700195	52.364700	128.520157
3333.632979	275.142029	53.241379	133.546448
3333.636289	278.999420	54.176506	139.274109
3333.639611	283.558136	55.754532	144.767975
3333.642978	287.473999	56.631210	150.554062
3333.646295	292.149628	57.975456	157.158386
3333.649667	296.825256	58.793694	163.879593
3333.652995	300.916412	60.137932	170.191696
3333.656304	305.124481	61.248398	177.088242
3333.659662	310.092346	63.001755	183.634125
3333.662972	314.651062	63.761543	190.355331
3333.666305	318.742249	66.157799	199.355911
3333.669625	323.534760	66.391586	206.369354
3333.673003	327.684387	68.554062	213.441254
3333.676326	332.126251	69.606079	222.032715
3333.679669	336.392731	71.067215	230.741089
3333.682980	340.717712	72.586792	239.274109
3333.686354	345.802460	74.047928	248.274689
3333.689647	349.893616	75.392174	257.158386
3333.693011	354.569244	76.444191	267.327850
3333.696345	357.842194	77.788429	275.685547
3333.699645	362.225586	79.015785	286.322632
3333.702959	367.135010	80.360031	296.667450
3333.706314	370.407959	81.528931	307.830505
3333.710110	375.141998	82.873177	318.993561
3333.713017	379.759216	84.100533	330.039734
3333.716748	382.447693	85.503220	342.137909
3333.720094	386.421967	86.438339	354.060760
3333.723460	389.753357	87.256577	366.801880
3333.726787	392.441864	87.841034	379.426056
3333.730139	395.247223	89.185280	393.102264
3333.733475	398.344818	90.178848	407.187622
3333.736801	401.091736	90.412628	421.682037
3333.740103	403.780243	91.406197	436.819427
3333.743429	405.241394	92.750443	452.365875
3333.746757	407.170074	93.393341	468.438354
3333.750097	407.812958	94.036232	484.393921
3333.753423	409.157227	95.322037	501.810669
3333.756725	409.040314	95.964935	518.935120
3333.760041	408.222076	96.549385	535.650513
3333.763329	407.579193	97.601402	553.651672
3333.766659	406.585602	98.361198	572.354187
3333.770004	404.715363	98.945641	590.179993
3333.773373	402.026886	99.471657	609.116333
3333.777095	398.870850	100.114548	627.585022
3333.780449	395.130341	101.166573	646.755127
3333.783726	390.688477	101.984802	666.275818
3333.787020	385.077728	101.926369	683.867859
3333.790410	378.999420	102.510811	702.395081
3333.793745	372.570435	103.562836	720.513184
3333.797060	364.154297	104.205727	739.215637
3333.800382	355.796600	105.082405	757.509033
3333.803764	347.906494	105.023956	775.276428
3333.807110	337.152527	105.374634	792.868469
3333.810471	326.515503	105.140854	810.051392
3333.813815	315.761536	105.140854	827.059021
3333.817103	304.247803	104.673294	844.241943
3333.820442	290.922272	104.264175	858.327271
3333.823776	278.181183	103.738167	875.101135
3333.827075	264.563416	102.978378	889.011047
3333.830406	250.361191	101.926369	903.037964
3333.833721	235.574524	100.172997	917.415588
3333.837108	219.677368	98.887207	929.922852
3333.840413	203.078903	96.783165	942.313232
3333.843731	187.415543	94.620697	951.898315
3333.847050	169.823486	92.575096	962.301575
3333.850827	152.815887	90.295738	971.886597
3333.854146	134.230270	87.782585	979.484497
3333.857477	115.819992	84.743423	988.660339
3333.860820	96.416122	82.113388	993.978943
3333.864174	78.122734	78.840446	999.706604
3333.867554	58.894211	75.509064	1004.265320
3333.870883	38.087666	72.060783	1007.772034
3333.874209	18.917591	68.203392	1008.999451
3333.877512	-1.596729	64.813560	1009.291565
3333.880904	-22.344830	61.073051	1009.992981
3333.884228	-42.508480	57.449448	1009.408508
3333.887575	-62.613674	53.708946	1007.012268
3333.890873	-83.069550	50.085327	1003.271667
3333.894203	-102.824081	45.234367	998.946838
3333.897590	-122.870850	41.961426	992.576233
3333.900894	-142.216263	38.805382	986.264160
3333.904218	-161.737000	35.181763	977.497375
3333.907508	-180.088852	31.441263	967.853882
3333.910889	-198.499115	27.992987	957.859741
3333.914253	-216.208069	25.479837	945.936829
3333.917588	-233.215668	21.856226	934.013977
3333.920901	-249.521912	18.933956	920.220886
3333.924326	-265.711273	15.661016	904.674500
3333.927665	-280.264191	12.446522	889.829285
3333.931015	-294.115723	9.524256	875.101135
3333.934378	-307.791931	7.186440	858.151978
3333.937699	-320.825256	4.907072	841.845642
3333.941021	-332.163666	2.160140	825.890137
3333.944351	-344.144958	-0.294565	808.648743
3333.947648	-353.613098	-2.457043	791.115173
3333.951067	-362.087708	-3.976623	773.464661
3333.954396	-371.029816	-6.139100	756.924561
3333.957711	-378.393890	-8.301579	738.689636
3333.961110	-384.472229	-11.106956	722.149597
3333.964458	-391.076569	-13.152543	704.031555
3333.968219	-395.869080	-15.315021	687.257751
3333.971550	-400.310913	-17.419054	670.483948
3333.974885	-404.402130	-19.172413	653.359436
3333.978230	-407.850372	-20.984221	636.527161
3333.981549	-410.655762	-22.211573	619.110474
3333.984884	-412.935120	-24.198715	603.622437
3333.988219	-414.454712	-25.542957	586.731750
3333.991554	-415.506714	-27.413208	571.068359
3333.994885	-416.091187	-28.874344	553.885437
3333.998214	-416.675629	-30.569258	539.741638
3334.001555	-416.324951	-32.147285	523.552307
3334.004877	-416.032715	-33.316193	508.064270
3334.008231	-414.922241	-34.251316	493.160706
3334.011549	-414.454712	-35.303329	478.023376
3334.014926	-412.467590	-36.296902	463.879578
3334.018228	-410.655762	-37.290474	449.911163
3334.021555	-408.084167	-38.167152	434.423126
3334.024876	-405.980133	-38.751610	420.337830
3334.028216	-402.940948	-39.277618	406.427826
3334.031545	-400.077179	-39.511398	393.511383
3334.034883	-396.745758	-40.154297	381.120972
3334.038245	-392.596161	-40.388077	367.737000
3334.041546	-388.797211	-40.797195	355.405029
3334.044880	-384.764435	-40.271187	343.189941
3334.048211	-381.491547	-40.154297	330.624176
3334.051557	-377.458771	-39.628288	319.052002
3334.054875	-372.666290	-39.920517	308.648743
3334.058214	-367.873779	-39.219170	297.193451
3334.061539	-363.841034	-39.394508	286.381073
3334.064883	-359.399200	-39.219170	276.796021
3334.068209	-353.613098	-38.693161	267.210999
3334.071544	-349.288147	-38.400936	257.801270
3334.074880	-345.255402	-38.225601	248.450012
3334.078207	-340.346008	-37.699593	239.390991
3334.081563	-335.261261	-36.589130	231.851532
3334.084896	-330.468750	-36.296902	223.318512
3334.088632	-325.559326	-35.946228	216.012848
3334.091972	-320.533020	-35.186440	208.531845
3334.095308	-315.974304	-35.127995	201.810623
3334.098629	-311.123322	-34.894215	195.381653
3334.101964	-306.447693	-34.251316	188.777313
3334.105302	-302.765656	-33.959091	183.283447
3334.108633	-297.914673	-33.433083	177.614258
3334.111986	-293.531281	-33.257744	172.003494
3334.115323	-289.089447	-33.257744	166.334305
3334.118703	-285.173584	-32.673294	161.307999
3334.121988	-281.140869	-33.082409	155.931030
3334.125308	-276.231445	-32.205727	152.015198
3334.128633	-273.367645	-32.614845	146.404434
3334.131953	-269.218018	-32.147285	142.605484
3334.135287	-265.360596	-31.212156	138.338974
3334.138634	-262.087677	-31.679720	134.072464
3334.141978	-258.054932	-31.971947	130.624191
3334.145299	-254.606659	-31.445938	127.351257
3334.148651	-251.275299	-30.978374	123.669189
3334.151984	-247.943909	-30.861485	119.928680
3334.155317	-243.911163	-30.627703	116.655746
3334.158676	-240.521332	-30.803040	113.733490
3334.161980	-237.248383	-29.926359	109.817642
3334.165287	-233.975464	-29.341906	107.304489
3334.168628	-230.527191	-29.809469	103.622437
3334.172388	-227.137329	-29.283461	100.875504
3334.175742	-223.689056	-29.341906	97.368790
3334.179069	-221.292816	-28.932789	94.037399
3334.182462	-217.961426	-28.114553	92.284042
3334.185794	-214.922272	-27.588545	88.952652
3334.189110	-212.058441	-27.296318	86.790176
3334.192420	-209.486847	-26.594975	83.517242
3334.195714	-206.038589	-27.179428	81.822327
3334.199053	-203.759216	-26.302746	78.549377
3334.202413	-200.953827	-25.659847	77.380478
3334.205744	-198.265350	-25.542957	74.808884
3334.209154	-195.576843	-25.484512	72.412613
3334.212457	-193.355927	-25.016949	70.542374
3334.215727	-191.427246	-25.075394	68.730560
3334.219038	-188.563416	-24.140270	66.509644
3334.222404	-186.868500	-23.555817	64.756287
3334.225732	-184.706039	-23.789597	63.938046
3334.229068	-182.718887	-23.614262	61.950901
3334.232444	-181.140869	-23.380480	60.022205
3334.235816	-178.861496	-23.438925	59.379307
3334.239155	-176.289886	-22.854471	58.151958
3334.242365	-175.062546	-23.029808	56.749271
3334.245704	-173.133835	-22.445354	55.521915
3334.249057	-172.023376	-22.153128	54.703678
3334.252397	-169.685577	-22.094681	53.534771
3334.255730	-168.867340	-22.270020	52.833431
3334.259126	-166.646393	-22.445354	52.541203
3334.262444	-165.652832	-22.737581	51.606075
3334.265771	-164.542374	-22.036236	50.846287
3334.269464	-162.905899	-22.094681	50.670948
3334.272822	-162.379898	-22.211573	49.560490
3334.276210	-160.977219	-22.620689	48.157803
3334.279582	-160.392746	-22.328465	47.631794
3334.282927	-158.931625	-21.802456	46.579777
3334.286261	-157.412048	-21.568672	46.462887
3334.289601	-156.886047	-21.568672	45.995319
3334.292979	-155.658691	-21.919346	45.819981
3334.296341	-154.898895	-21.510227	45.001751
3334.299645	-153.671539	-21.685564	44.475742
3334.302950	-152.736420	-21.159557	44.241962
3334.306246	-151.976624	-21.744009	42.956165
3334.309549	-151.099945	-21.568672	42.371708
3334.312857	-149.931046	-21.159557	41.845699
3334.316282	-149.054367	-20.867329	41.787258
3334.319599	-148.411453	-20.808884	41.202808
3334.322906	-147.534775	-21.042665	40.676792
3334.326243	-146.599655	-21.042665	39.215664
3334.329532	-145.138519	-20.282875	38.981884
3334.332843	-144.495621	-20.984221	38.455868
3334.336206	-144.144958	-20.691994	37.520748
3334.339521	-143.443604	-20.399767	37.286968
3334.342898	-142.800705	-20.575104	36.760952
3334.346210	-141.924026	-20.458212	36.351841
3334.349958	-141.514908	-20.750439	35.942722
3334.353303	-140.813568	-20.165985	35.708935
3334.356597	-139.936874	-20.165985	36.118061
3334.359936	-139.995331	-20.282875	35.825825
3334.363290	-139.469315	-19.698421	35.182934
3334.366595	-138.534195	-19.932205	34.949154
3334.369867	-138.943314	-19.756868	34.598476
3334.373199	-138.300415	-19.347750	34.598476
3334.376491	-137.832855	-19.815313	34.598476
3334.379779	-137.599060	-20.282875	34.014027
3334.383105	-137.715958	-19.581532	34.247807
3334.386404	-137.715958	-20.575104	33.721798
3334.389784	-137.832855	-20.458212	33.254230
3334.393053	-137.540634	-20.341320	34.247807
3334.396456	-138.066635	-20.750439	34.306248
3334.399831	-138.008194	-20.575104	33.897137
3334.403103	-138.417313	-20.516657	34.773815
3334.406852	-138.534195	-20.691994	35.007595
3334.410225	-138.943314	-21.101110	35.299824
3334.413501	-139.352432	-21.159557	35.650494
3334.416815	-139.001755	-20.750439	35.650494
3334.420095	-139.469315	-21.334892	36.118061
3334.423445	-139.703094	-21.802456	35.533604
3334.426817	-140.170654	-22.328465	36.176502
3334.430187	-140.638229	-21.860901	37.579197
3334.433473	-140.930450	-22.503799	36.994732
3334.436784	-141.631790	-22.211573	36.877842
3334.440171	-141.748688	-22.270020	36.527172
3334.443490	-141.982483	-23.146698	37.637638
3334.446841	-142.216263	-22.971363	38.163647
3334.450112	-142.800705	-22.620689	38.981884
3334.453495	-144.028061	-22.912918	37.988308
3334.456855	-144.086502	-23.205143	37.754528
3334.460173	-144.846298	-23.614262	38.397427
3334.463500	-145.664536	-23.322033	38.748104
3334.466911	-145.372299	-23.146698	38.923435
3334.470287	-145.606079	-23.555817	39.040325
3334.473596	-146.541199	-23.555817	39.274105
3334.476990	-146.658096	-23.964931	39.683224
3334.480300	-147.534775	-23.789597	39.624775
3334.483606	-148.586807	-24.257160	39.917011
3334.486976	-148.703690	-24.374050	40.209232
3334.490274	-149.463470	-24.257160	40.150791
3334.493687	-151.392181	-24.666279	41.495029
3334.497049	-152.035080	-24.666279	41.319698
3334.500387	-153.203979	-24.900059	42.137928
3334.503707	-154.255997	-24.958504	42.897717
3334.507069	-155.191132	-25.601402	43.715954
3334.510356	-155.892456	-25.835184	43.774403
3334.513775	-157.587372	-26.127411	45.177090
3334.517083	-158.639404	-26.244301	45.703091
3334.520397	-159.749863	-26.770309	46.755116
3334.523759	-161.503204	-26.770309	47.164227
3334.527089	-162.847458	-27.120981	48.625362
3334.530418	-164.542374	-27.822327	49.268261
3334.533798	-165.360611	-27.705437	49.969608
3334.537099	-167.347763	-28.640562	51.313854
3334.540493	-168.867340	-29.283461	51.956745
3334.543823	-171.029816	-29.751022	54.236118
3334.547602	-172.724731	-30.744595	55.580364
3334.550896	-174.653427	-30.686148	56.515491
3334.554220	-176.231445	-31.329046	58.210400
3334.557559	-178.393921	-31.855055	59.437756
3334.560880	-181.199310	-32.381065	61.191113
3334.564186	-182.777328	-32.556400	62.710697
3334.567495	-184.706039	-33.140854	64.347168
3334.570824	-187.043854	-34.426651	65.983643
3334.574093	-189.381668	-34.835770	67.327881
3334.577405	-191.836349	-35.537113	68.847458
3334.580735	-193.706604	-35.829338	70.133255
3334.584067	-195.343079	-36.238457	73.698425
3334.587450	-197.856232	-37.232029	74.808884
3334.590778	-199.609589	-36.881355	76.562241
3334.594041	-202.648743	-37.816483	77.731155
3334.597404	-205.278793	-38.868500	79.542953
3334.601160	-207.733505	-39.219170	82.114548
3334.604818	-209.954407	-39.686733	84.861481
3334.608157	-212.759796	-39.978958	86.264160
3334.611490	-215.915833	-40.621857	87.900635
3334.614822	-218.604340	-41.440094	90.706009
3334.618151	-221.701935	-42.199883	93.277618
