time (s)	det(V)
2400.843022	0.763896	
2400.844551	0.793234	
2400.846106	0.848882	
2400.847653	0.872008	
2400.849165	0.901810	
2400.850751	0.950291	
2400.852269	1.010880	
2400.853834	1.045887	
2400.855346	1.101908	
2400.856961	1.150796	
2400.858464	1.206270	
2400.860037	1.246888	
2400.861570	1.289680	
2400.863164	1.348377	
2400.864662	1.401084	
2400.866234	1.462028	
2400.867763	1.526481	
2400.869317	1.585657	
2400.870864	1.624909	
2400.872388	1.638287	
2400.873977	1.638714	
2400.875496	1.638723	
2400.877060	1.638791	
2400.878566	1.638726	
2400.880174	1.638767	
2400.881676	1.638799	
2400.883271	1.638759	
2400.884773	1.638738	
2400.886375	1.638726	
2400.887885	1.638735	
2400.889467	1.638710	
2400.890999	1.638690	
2400.892535	1.638706	
2400.894107	1.638751	
2400.895619	1.638751	
2400.897180	1.638815	
2400.898683	1.638678	
2400.900287	1.638731	
2400.901782	1.638779	
2400.903362	1.638791	
2400.904882	1.638710	
2400.906483	1.638795	
2400.907983	1.638787	
2400.909563	1.638706	
2400.911090	1.638658	
2400.912641	1.638783	
2400.914179	1.638710	
2400.915692	1.638735	
2400.917305	1.638791	
2400.918792	1.638723	
2400.920397	1.638759	
2400.921886	1.638791	
2400.923484	1.638835	
2400.924991	1.638743	
2400.926565	1.638775	
2400.928099	1.638775	
2400.929637	1.638807	
2400.931201	1.638811	
2400.932716	1.638783	
2400.934291	1.638783	
2400.935824	1.638771	
2400.937412	1.638831	
2400.938901	1.638807	
2400.940474	1.638835	
2400.941998	1.638662	
2400.943605	1.638787	
2400.945097	1.638803	
2400.946684	1.638775	
2400.948206	1.638714	
2400.949773	1.638859	
2400.951314	1.638763	
2400.952836	1.638803	
2400.954412	1.638823	
2400.955929	1.638795	
2400.957505	1.638795	
2400.959003	1.638779	
2400.960774	1.638827	
2400.962317	1.638767	
2400.964009	1.638908	
2400.965556	1.638883	
2400.967248	1.638847	
2400.968814	1.638747	
2400.970490	1.638851	
2400.972079	1.638759	
2400.973742	1.638892	
2400.975315	1.638799	
2400.976970	1.638843	
2400.978594	1.638795	
2400.980193	1.638956	
2400.981827	1.638807	
2400.983423	1.638896	
2400.985105	1.638783	
2400.986701	1.638863	
2400.988369	1.638775	
2400.989972	1.638988	
2400.991677	1.638803	
2400.993247	1.638855	
2400.994941	1.638831	
2400.996492	1.638892	
2400.998182	1.638783	
2400.999742	1.638928	
2401.001449	1.638827	
2401.003001	1.638763	
2401.004748	1.638791	
2401.006262	1.638912	
2401.008005	1.638863	
2401.009486	1.638855	
2401.011253	1.638859	
2401.012735	1.638791	
2401.014494	1.638855	
2401.015976	1.638779	
2401.017735	1.638783	
2401.019229	1.638863	
2401.020999	1.638755	
2401.022499	1.638859	
2401.024242	1.638888	
2401.025760	1.638831	
2401.027481	1.638819	
2401.029019	1.638771	
2401.030730	1.638892	
2401.032279	1.638799	
2401.033988	1.638892	
2401.035536	1.638759	
2401.037217	1.638855	
2401.038789	1.638771	
2401.040446	1.638803	
2401.042027	1.638827	
2401.043676	1.638888	
2401.045294	1.638718	
2401.046926	1.638847	
2401.048545	1.638811	
2401.050179	1.638803	
2401.051839	1.638743	
2401.053445	1.638896	
2401.055119	1.638738	
2401.056714	1.638791	
2401.058394	1.638739	
2401.059971	1.638827	
2401.061657	1.638779	
2401.063219	1.638831	
2401.064907	1.638811	
2401.066461	1.638811	
2401.068171	1.638867	
2401.069718	1.638811	
2401.071438	1.638731	
2401.072948	1.638755	
2401.074700	1.638771	
2401.076184	1.633784	
2401.077960	1.438994	
2401.079451	1.277185	
2401.081223	1.102915	
2401.082705	0.942762	
2401.084506	0.783937	
2401.085987	0.635864	
2401.087747	0.466368	
2401.089238	0.329929	
2401.090976	0.181582	
2401.092476	0.036736	
2401.094209	-0.129416	
2401.095743	-0.273151	
2401.097478	-0.410214	
2401.099013	-0.553852	
2401.100705	-0.695496	
2401.102255	-0.826046	
2401.103950	-0.984653	
2401.105507	-1.124464	
2401.107197	-1.271582	
2401.108783	-1.422028	
2401.110457	-1.578230	
2401.112043	-1.615484	
2401.113700	-1.615419	
2401.115297	-1.615443	
2401.116933	-1.615472	
2401.118551	-1.615653	
2401.120180	-1.615459	
2401.121824	-1.615528	
2401.123434	-1.615363	
2401.125103	-1.615560	
2401.126702	-1.615463	
2401.128357	-1.615621	
2401.129841	-1.615516	
2401.131577	-1.615677	
2401.133049	-1.615544	
2401.134763	-1.615560	
2401.136245	-1.615645	
2401.137945	-1.615447	
2401.139421	-1.615600	
2401.141123	-1.615552	
2401.142608	-1.615556	
2401.144295	-1.615625	
2401.145801	-1.615552	
2401.147466	-1.615540	
2401.149007	-1.615685	
2401.150631	-1.615508	
2401.152199	-1.615673	
2401.153814	-1.615609	
2401.155394	-1.615641	
2401.156970	-1.615528	
2401.158593	-1.615621	
2401.160123	-1.615572	
2401.161814	-1.615717	
2401.163292	-1.615512	
2401.165010	-1.615613	
2401.166486	-1.615536	
2401.168215	-1.615717	
2401.169690	-1.615621	
2401.171393	-1.615737	
2401.172879	-1.615689	
2401.174587	-1.615665	
2401.176079	-1.615613	
2401.177792	-1.615613	
2401.179289	-1.615645	
2401.180970	-1.615689	
2401.182465	-1.615697	
2401.184108	-1.615592	
2401.185639	-1.615685	
2401.187281	-1.615600	
2401.188839	-1.615737	
2401.190440	-1.615645	
2401.192046	-1.615685	
2401.193603	-1.615540	
2401.195223	-1.615737	
2401.196747	-1.615576	
2401.198433	-1.615697	
2401.199909	-1.615625	
2401.201652	-1.615673	
2401.203131	-1.615661	
2401.204820	-1.615741	
2401.206310	-1.615721	
2401.208001	-1.615713	
2401.209498	-1.615613	
2401.211222	-1.615657	
2401.212713	-1.615697	
2401.214427	-1.615520	
2401.215909	-1.615737	
2401.217506	-1.615621	
2401.219037	-1.615649	
2401.220592	-1.615673	
2401.222182	-1.615830	
2401.223776	-1.615609	
2401.225401	-1.615709	
2401.226897	-1.615600	
2401.228524	-1.615621	
2401.230050	-1.615750	
2401.231685	-1.615633	
2401.233158	-1.615613	
2401.234806	-1.615576	
2401.236287	-1.615681	
2401.237940	-1.615516	
2401.239417	-1.615717	
2401.241028	-1.615597	
2401.242543	-1.615629	
2401.244117	-1.615584	
2401.245669	-1.615713	
2401.247183	-1.615621	
2401.248815	-1.615600	
2401.250309	-1.615568	
2401.251949	-1.615629	
2401.253479	-1.615605	
2401.255124	-1.615604	
2401.256606	-1.615528	
2401.258238	-1.615588	
2401.259722	-1.615613	
2401.261363	-1.615637	
2401.262858	-1.615600	
2401.264490	-1.615556	
2401.265999	-1.615665	
2401.267612	-1.615540	
2401.269132	-1.615629	
2401.270694	-1.615484	
2401.272245	-1.615588	
2401.273748	-1.615697	
2401.275406	-1.615568	
2401.276909	-1.615600	
2401.278530	-1.615701	
2401.280066	-1.615580	
2401.281708	-1.615657	
2401.283192	-1.615580	
2401.284845	-1.615580	
2401.286326	-1.615560	
2401.287953	-1.615532	
2401.289438	-1.615516	
2401.291074	-1.615556	
2401.292562	-1.615576	
2401.294157	-1.615600	
2401.295694	-1.615633	
2401.297246	-1.615544	
2401.298859	-1.615560	
2401.300352	-1.615536	
2401.302003	-1.615625	
2401.303502	-1.615471	
2401.305168	-1.615472	
2401.306666	-1.615540	
2401.308288	-1.615556	
2401.309757	-1.615580	
2401.311345	-1.615605	
2401.312854	-1.615564	
2401.314402	-1.615560	
2401.315942	-1.615556	
2401.317434	-1.615556	
2401.319021	-1.615584	
2401.320542	-1.615524	
2401.322145	-1.615613	
2401.323637	-1.615468	
2401.325258	-1.615488	
2401.326780	-1.614207	
2401.328375	-1.557452	
2401.329849	-1.485595	
2401.331419	-1.437553	
2401.332949	-1.394297	
2401.334501	-1.338404	
2401.336033	-1.283486	
2401.337529	-1.240217	
2401.339149	-1.206823	
2401.340636	-1.158970	
2401.342253	-1.122643	
2401.343752	-1.088648	
2401.345322	-1.054024	
2401.346834	-1.019010	
2401.348433	-0.983815	
2401.349927	-0.957506	
2401.351487	-0.914467	
2401.353013	-0.882482	
2401.354567	-0.858284	
2401.356086	-0.824201	
2401.357569	-0.791394	
2401.359163	-0.773424	
2401.360697	-0.756706	
2401.362297	-0.728717	
2401.363794	-0.699315	
2401.365366	-0.689421	
2401.366892	-0.667511	
2401.368455	-0.634974	
2401.369982	-0.611465	
2401.371522	-0.592947	
2401.373079	-0.568028	
2401.374611	-0.553417	
2401.376197	-0.545493	
2401.377698	-0.544506	
2401.379306	-0.521686	
2401.380810	-0.506189	
2401.382416	-0.496896	
2401.383921	-0.481105	
2401.385495	-0.456834	
2401.387022	-0.446211	
2401.388595	-0.441974	
2401.390119	-0.421687	
2401.391674	-0.408035	
2401.393218	-0.412430	
2401.394751	-0.402133	
2401.396310	-0.390306	
2401.397843	-0.393388	
2401.399410	-0.387325	
2401.400915	-0.369939	
2401.402494	-0.348122	
2401.404026	-0.339062	
2401.405623	-0.336009	
2401.407126	-0.320882	
2401.408702	-0.312809	
2401.410221	-0.318888	
2401.411802	-0.313075	
2401.413330	-0.299863	
2401.414872	-0.297107	
2401.416421	-0.292849	
2401.417954	-0.274460	
2401.419519	-0.264441	
2401.421019	-0.258133	
2401.422601	-0.248856	
2401.424127	-0.241069	
2401.425709	-0.236533	
2401.427215	-0.238060	
2401.428793	-0.227546	
2401.430331	-0.228082	
2401.431904	-0.223973	
2401.433429	-0.218591	
2401.434961	-0.202973	
2401.436522	-0.191126	
2401.438055	-0.189716	
2401.439608	-0.179331	
2401.441113	-0.165639	
2401.442706	-0.164015	
2401.444209	-0.168459	
2401.445810	-0.154476	
2401.447313	-0.150577	
2401.448903	-0.149445	
2401.450404	-0.149864	
2401.451948	-0.127096	
2401.453488	-0.122943	
2401.455018	-0.116731	
2401.456603	-0.110773	
2401.458099	-0.101629	
2401.459676	-0.104783	
2401.461203	-0.109843	
2401.462801	-0.098752	
2401.464303	-0.089769	
2401.465872	-0.092146	
2401.467405	-0.085342	
2401.468961	-0.073092	
2401.470506	-0.067066	
2401.472024	-0.068621	
2401.473609	-0.063513	
2401.475124	-0.050107	
2401.476714	-0.062768	
2401.478210	-0.059384	
2401.479806	-0.052786	
2401.481305	-0.052737	
2401.482912	-0.054771	
2401.484403	-0.041015	
2401.485973	-0.037015	
2401.487506	-0.033304	
2401.489053	-0.031496	
2401.490602	-0.020656	
2401.492133	-0.019423	
2401.493703	-0.025135	
2401.495213	-0.027834	
2401.496782	-0.020337	
2401.498303	-0.027496	
2401.499910	-0.027685	
2401.501400	-0.017485	
2401.502974	-0.008462	
2401.504502	-0.008430	
2401.506088	-0.002874	
2401.507587	0.000203	
2401.509152	-0.006343	
2401.510684	-0.014649	
2401.512234	-0.017312	
2401.513774	-0.016583	
2401.515295	-0.014387	
2401.516875	-0.020390	
2401.518406	-0.009509	
2401.519994	-0.001851	
2401.521488	-0.009425	
2401.523063	-0.005255	
2401.524595	0.000050	
2401.526187	-0.007499	
2401.527691	-0.016498	
2401.529255	-0.016982	
2401.530775	-0.012474	
2401.532350	-0.022021	
2401.533892	-0.020104	
2401.535405	-0.010838	
2401.536983	-0.003124	
2401.538492	-0.013026	
2401.540091	-0.008998	
2401.541584	0.001271	
2401.543185	-0.014794	
2401.544685	-0.022247	
2401.546290	-0.013723	
2401.547779	-0.023487	
2401.549345	-0.031818	
2401.550870	-0.032176	
2401.552446	-0.014996	
2401.553973	-0.013622	
2401.555512	-0.024261	
2401.557092	-0.014935	
2401.558586	-0.013602	
2401.560180	-0.033546	
2401.561702	-0.036185	
2401.563306	-0.017727	
2401.564798	-0.027314	
2401.566365	-0.033836	
2401.567895	-0.021691	
2401.569480	-0.018484	
2401.571005	-0.024575	
2401.572525	-0.020156	
2401.574103	-0.013638	
2401.575622	-0.016659	
2401.577212	-0.027528	
2401.578703	-0.028958	
2401.580291	-0.023866	
2401.581811	-0.029534	
2401.583419	-0.031983	
2401.584914	-0.018307	
2401.586492	-0.014686	
2401.588006	-0.012800	
2401.589587	-0.012945	
2401.591108	-0.008659	
2401.592630	-0.013541	
2401.594208	-0.018226	
2401.595724	-0.013650	
2401.597326	-0.008861	
2401.598810	-0.022694	
2401.600416	-0.017751	
2401.601914	-0.009541	
2401.603509	-0.009868	
2401.605007	-0.007503	
2401.606591	-0.002149	
2401.608093	0.006298	
2401.609656	-0.004873	
2401.611179	-0.012953	
2401.612747	-0.006001	
2401.614277	-0.005545	
2401.615790	-0.003358	
2401.617366	-0.006560	
2401.618880	0.004377	
2401.620463	0.003144	
2401.621952	-0.002025	
2401.623527	0.010479	
2401.625032	0.017517	
2401.626652	0.003776	
2401.628157	0.005545	
2401.629736	0.011720	
2401.631249	0.008904	
2401.632810	0.000993	
2401.634329	0.009565	
2401.635872	0.018701	
2401.637668	0.015305	
2401.639160	0.017489	
2401.640920	0.021867	
2401.642428	0.019229	
2401.644166	0.008381	
2401.645689	0.012167	
2401.647405	0.011777	
2401.648943	-0.000401	
2401.650646	0.011607	
2401.652194	0.022431	
2401.653886	0.022335	
2401.655439	0.015499	
2401.657130	0.019305	
2401.658718	0.019048	
2401.660390	0.011648	
2401.661978	0.008731	
2401.663617	0.011007	
2401.665230	0.004026	
2401.666886	0.004171	
2401.668483	0.015140	
2401.670104	0.015346	
2401.671781	0.007954	
2401.673379	0.010890	
2401.675049	0.012087	
2401.676645	0.004880	
2401.678332	0.002088	
2401.679914	0.008691	
2401.681582	-0.004832	
2401.683154	-0.007632	
2401.684835	0.003680	
2401.686382	0.009581	
2401.688088	-0.002915	
2401.689629	0.000239	
2401.691336	0.008296	
2401.692844	0.004042	
2401.694606	-0.003281	
2401.696091	-0.003020	
2401.697863	-0.001025	
2401.699360	-0.009304	
2401.701135	-0.004913	
2401.702615	0.005891	
2401.704388	0.003994	
2401.705868	0.004356	
2401.707594	0.006193	
2401.709098	0.010052	
2401.710829	-0.001880	
2401.712347	0.003128	
2401.714075	0.005182	
2401.715614	-0.001167	
2401.717312	-0.000458	
2401.718862	0.013658	
2401.720545	0.012167	
2401.722101	0.014169	
2401.723775	0.025312	
2401.725353	0.023922	
2401.726998	0.015833	
2401.728602	0.016300	
2401.730248	0.022645	
2401.731845	0.020405	
2401.733486	0.021352	
2401.735098	0.039121	
2401.736718	0.050021	
2401.738401	0.038674	
2401.739994	0.059621	
2401.741674	0.058815	
2401.743243	0.064507	
2401.744912	0.062501	
2401.746485	0.065897	
2401.748164	0.068181	
2401.749731	0.064640	
2401.751451	0.076516	
2401.752996	0.089777	
2401.754701	0.087118	
2401.756229	0.102047	
2401.757963	0.110607	
2401.759449	0.108581	
2401.761214	0.105934	
2401.762710	0.105955	
2401.764507	0.126664	
2401.765986	0.119288	
2401.767765	0.133786	
2401.769249	0.150564	
2401.771013	0.157283	
2401.772498	0.151555	
2401.774245	0.166855	
2401.775756	0.173062	
2401.777511	0.168067	
2401.779040	0.178629	
2401.780781	0.177022	
2401.782308	0.187435	
2401.784025	0.188644	
2401.785560	0.201901	
2401.787273	0.209305	
2401.788830	0.218135	
2401.790531	0.228661	
2401.792096	0.242946	
2401.793794	0.233016	
2401.795369	0.232698	
2401.797039	0.244702	
2401.798630	0.240605	
2401.800194	0.251059	
2401.801815	0.262237	
2401.803334	0.279289	
2401.805024	0.287020	
2401.806500	0.293630	
2401.808237	0.304764	
2401.809715	0.297856	
2401.811422	0.303673	
2401.812902	0.314690	
2401.814603	0.320273	
2401.816104	0.316624	
2401.817833	0.331085	
2401.819326	0.356049	
2401.821008	0.356194	
2401.822492	0.366490	
2401.824160	0.383325	
2401.825672	0.391514	
2401.827302	0.387901	
2401.828849	0.396489	
2401.830448	0.416896	
2401.832051	0.418073	
2401.833616	0.431648	
2401.835233	0.445236	
2401.836781	0.461333	
2401.838438	0.473809	
2401.839926	0.494740	
2401.841641	0.506865	
2401.843121	0.506136	
2401.844840	0.525279	
2401.846325	0.559016	
2401.848048	0.567846	
2401.849538	0.577631	
2401.851261	0.609470	
2401.852748	0.636686	
2401.854450	0.652920	
2401.855933	0.672602	
2401.857628	0.701896	
2401.859120	0.737821	
2401.860796	0.742216	
2401.862332	0.778241	
2401.863970	0.803204	
2401.865535	0.834206	
2401.867172	0.862099	
2401.868747	0.905898	
2401.870349	0.942810	
2401.871944	0.973067	
2401.873490	1.013857	
2401.875112	1.050362	
2401.876611	1.072208	
2401.878328	1.113288	
2401.879804	1.158305	
2401.881530	1.196872	
2401.883004	1.238770	
2401.884720	1.293165	
2401.886196	1.343338	
2401.887839	1.377889	
2401.889321	1.429439	
2401.890939	1.488011	
2401.892453	1.532846	
2401.894024	1.568090	
2401.895578	1.612248	
2401.897078	1.635278	
2401.898722	1.638763	
2401.900210	1.638767	
2401.901848	1.638843	
2401.903371	1.638690	
2401.905011	1.638851	
2401.906491	1.638690	
2401.908150	1.638779	
2401.909628	1.638735	
2401.911262	1.638839	
2401.912753	1.638714	
2401.914374	1.638763	
2401.915888	1.638690	
2401.917469	1.638815	
2401.919006	1.638722	
2401.920559	1.638767	
2401.922140	1.638795	
2401.923640	1.638726	
2401.925297	1.638751	
2401.926797	1.638827	
2401.928428	1.638698	
2401.929954	1.638759	
2401.931590	1.638726	
2401.933085	1.638702	
2401.934729	1.638787	
2401.936214	1.638751	
2401.937859	1.638876	
2401.939345	1.638823	
2401.940963	1.638835	
2401.942458	1.638706	
2401.944041	1.638831	
2401.945578	1.638726	
2401.947113	1.638795	
2401.948747	1.638751	
2401.950245	1.638751	
2401.951897	1.638827	
2401.953397	1.638739	
2401.955052	1.638726	
2401.956539	1.638771	
2401.958202	1.638763	
2401.959680	1.638747	
2401.961333	1.638791	
2401.962810	1.638819	
2401.964436	1.638811	
2401.965926	1.638763	
2401.967519	1.638795	
2401.969046	1.638799	
2401.970598	1.638831	
2401.972205	1.638767	
2401.973693	1.638875	
2401.975360	1.638767	
2401.976852	1.638714	
2401.978489	1.638823	
2401.980015	1.638739	
2401.981650	1.638831	
2401.983124	1.638791	
2401.984696	1.638803	
2401.986213	1.638771	
2401.987763	1.638787	
2401.989309	1.638775	
2401.990792	1.638783	
2401.992389	1.638811	
2401.993884	1.638807	
2401.995478	1.638823	
2401.996971	1.638827	
2401.998542	1.638783	
2402.000070	1.638739	
2402.001661	1.638771	
2402.003160	1.638751	
2402.004722	1.638847	
2402.006266	1.638855	
2402.007816	1.638747	
2402.009323	1.638835	
2402.010820	1.638759	
2402.012413	1.638847	
2402.013911	1.638743	
2402.015520	1.638791	
2402.017006	1.638775	
2402.018561	1.638787	
2402.020085	1.638831	
2402.021679	1.638847	
2402.023180	1.638835	
2402.024742	1.638807	
2402.026276	1.638734	
2402.027820	1.638863	
2402.029363	1.638811	
2402.030860	1.638791	
2402.032467	1.638779	
2402.033951	1.638811	
2402.035573	1.638718	
2402.037070	1.638871	
2402.038655	1.638827	
2402.040155	1.638754	
2402.041746	1.638863	
2402.043232	1.638739	
2402.044785	1.638799	
2402.046325	1.638775	
2402.047886	1.638831	
2402.049407	1.638815	
2402.050922	1.638767	
2402.052520	1.638799	
2402.054019	1.638803	
2402.055602	1.638779	
2402.057138	1.638702	
2402.058763	1.638787	
2402.060258	1.638811	
2402.061833	1.638795	
2402.063358	1.638795	
2402.064938	1.638815	
2402.066464	1.638706	
2402.068008	1.638787	
2402.069582	1.638694	
2402.071123	1.638799	
2402.072658	1.638847	
2402.074160	1.638827	
2402.075763	1.638751	
2402.077272	1.638731	
2402.078839	1.638875	
2402.080358	1.638731	
2402.081930	1.638763	
2402.083462	1.638791	
2402.085002	1.638811	
2402.086561	1.638871	
2402.088087	1.638718	
2402.089678	1.638787	
2402.091176	1.638767	
2402.092751	1.638755	
2402.094277	1.638755	
2402.095871	1.638726	
2402.097371	1.638787	
2402.098915	1.638734	
2402.100457	1.638779	
2402.102025	1.638795	
2402.103561	1.638674	
2402.105089	1.638763	
2402.106656	1.638755	
2402.108187	1.638710	
2402.109764	1.638702	
2402.111263	1.638735	
2402.112852	1.638767	
2402.114375	1.638718	
2402.115972	1.638831	
2402.117474	1.638722	
2402.119051	1.638670	
2402.120592	1.636954	
2402.122159	1.521039	
2402.123680	1.381031	
2402.125218	1.275602	
2402.126786	1.164492	
2402.128326	1.041339	
2402.129902	0.927696	
2402.131398	0.815483	
2402.132996	0.691032	
2402.134492	0.593305	
2402.136059	0.469378	
2402.137585	0.365701	
2402.139176	0.261379	
2402.140680	0.144409	
2402.142238	0.020389	
2402.143787	-0.112074	
2402.145373	-0.225967	
2402.146891	-0.345874	
2402.148429	-0.468472	
2402.149981	-0.592870	
2402.151517	-0.707138	
2402.153080	-0.823008	
2402.154579	-0.953304	
2402.156156	-1.081904	
2402.157684	-1.193384	
2402.159278	-1.328925	
2402.160783	-1.455753	
2402.162343	-1.573364	
2402.163880	-1.614025	
2402.165431	-1.615625	
2402.166976	-1.615584	
2402.168493	-1.615492	
2402.170068	-1.615641	
2402.171607	-1.615572	
2402.173179	-1.615600	
2402.174674	-1.615633	
2402.176264	-1.615633	
2402.177790	-1.615625	
2402.179400	-1.615540	
2402.180899	-1.615580	
2402.182461	-1.615520	
