time (s)	magX	magY	magZ
2400.844008	-345.138519	-91.703094	207.538269
2400.847315	-349.697235	-92.638222	213.967255
2400.850630	-354.898895	-93.807129	220.571594
2400.853925	-358.931610	-94.976036	227.175903
2400.857263	-363.198151	-96.028053	235.358276
2400.860548	-369.276428	-97.664520	243.306824
2400.863936	-373.718262	-98.658096	250.904724
2400.867236	-378.803040	-99.768555	259.496185
2400.870575	-384.004700	-101.405022	268.555206
2400.873897	-388.504944	-102.340149	277.263580
2400.877180	-393.765045	-103.450615	287.374634
2400.880604	-398.674469	-104.677963	297.485657
2400.883934	-404.109863	-105.613091	308.531830
2400.887242	-409.311493	-107.308006	318.818207
2400.890618	-413.928711	-107.950905	329.805939
2400.893952	-419.247223	-108.710693	341.728821
2400.897255	-423.630646	-109.587372	352.891876
2400.900632	-429.182922	-110.522499	365.106964
2400.903924	-434.267670	-111.632965	376.971344
2400.907313	-438.826447	-112.626541	389.653961
2400.910623	-442.800720	-112.977203	402.979523
2400.913952	-447.184113	-114.087662	415.662201
2400.917692	-451.275269	-114.438339	429.046173
2400.921003	-455.366425	-115.782578	443.540619
2400.924343	-458.873199	-116.542374	457.450592
2400.927694	-463.022827	-116.308594	471.769714
2400.931019	-467.114014	-116.951485	486.147278
2400.934365	-470.328491	-117.945061	500.349487
2400.937719	-472.900085	-118.178841	515.837524
2400.941083	-475.413208	-118.295723	531.267090
2400.944391	-478.101685	-118.529510	546.872009
2400.947700	-480.088806	-119.055519	562.944458
2400.951040	-481.257751	-119.172417	578.490906
2400.954346	-483.069580	-119.172417	594.855652
2400.957769	-485.465820	-118.880188	612.097046
2400.961527	-485.465820	-119.113968	628.578613
2400.964863	-485.056702	-118.704857	645.469299
2400.968190	-486.634705	-118.120392	663.587402
2400.971536	-486.400940	-117.711281	681.062500
2400.974862	-484.939819	-117.477501	699.472839
2400.978197	-483.478638	-116.600822	718.000000
2400.981531	-481.900635	-116.191696	736.293396
2400.984906	-478.861511	-115.373466	754.762146
2400.988199	-475.179443	-114.438339	773.990662
2400.991554	-471.555847	-112.684975	793.511353
2400.994863	-467.406189	-111.106956	813.850342
2400.998191	-461.970764	-109.002922	833.604858
2401.001521	-455.775574	-107.132668	853.710144
2401.004868	-448.469879	-105.437752	873.873779
2401.008195	-441.164215	-103.158386	892.576294
2401.011525	-434.267670	-99.593224	913.149048
2401.014854	-423.922852	-96.612503	932.845093
2401.018188	-413.227325	-93.631798	951.722961
2401.021520	-403.817657	-90.125069	969.724121
2401.024857	-391.836365	-86.150787	988.543518
2401.028210	-380.030396	-82.410286	1007.421326
2401.031522	-367.113983	-78.611336	1024.253662
2401.034865	-353.671570	-74.403275	1040.501465
2401.038194	-339.294006	-69.552307	1057.158447
2401.041524	-324.682648	-64.292229	1072.003540
2401.044858	-308.259491	-59.324371	1086.264282
2401.048195	-291.661011	-54.356522	1099.005371
2401.051578	-275.296326	-49.739334	1111.921753
2401.054864	-257.938049	-44.713036	1123.727783
2401.058189	-239.586212	-38.868500	1133.897217
2401.061519	-222.344849	-33.725307	1144.475708
2401.064851	-203.350082	-28.815897	1153.827026
2401.068188	-185.232040	-22.912918	1160.665161
2401.071548	-165.886627	-17.477499	1167.854004
2401.074852	-146.190536	-12.451199	1173.055542
2401.078197	-125.793106	-6.723554	1178.607910
2401.081517	-106.447693	-1.697254	1181.939209
2401.084853	-85.933380	3.387492	1183.575684
2401.088185	-65.594391	8.939802	1185.446045
2401.091513	-45.606083	13.673876	1186.322754
2401.094847	-24.390415	18.992401	1186.264282
2401.098182	-4.577438	23.726477	1184.452515
2401.101518	15.995323	28.694330	1181.354858
2401.104844	36.158970	33.194626	1178.783203
2401.108183	57.140854	37.519577	1175.334961
2401.111518	77.655167	41.786087	1169.373535
2401.114869	97.585037	45.877266	1162.243164
2401.118180	118.274689	50.319115	1155.521973
2401.121532	137.561661	54.234955	1147.807129
2401.124853	157.082397	58.209236	1136.293457
2401.128603	176.661591	62.767975	1127.000610
2401.131940	195.188766	66.683815	1115.779175
2401.135277	213.599060	70.658096	1103.797852
2401.138620	231.658676	74.164818	1090.121582
2401.141928	249.484497	77.788429	1075.977783
2401.145262	266.433655	81.061371	1061.366455
2401.148601	281.863220	84.918762	1046.813599
2401.151957	297.351257	87.548798	1029.689087
2401.155295	312.430145	91.172409	1014.610168
2401.158667	327.216827	93.977791	998.245544
2401.161988	340.717712	96.549385	981.354797
2401.165272	353.809448	99.296318	962.885986
2401.168610	365.849213	102.277031	945.060242
2401.171933	377.304504	104.965523	925.890137
2401.175260	388.058441	107.303337	906.895386
2401.178602	397.760376	109.232033	888.485107
2401.181954	407.111633	111.745178	869.315002
2401.185260	415.644653	113.089424	851.138550
2401.188621	423.242554	114.901222	832.494385
2401.191953	430.197540	116.128578	813.207458
2401.195289	437.094116	116.888374	794.680237
2401.198604	442.587952	118.466393	776.036194
2401.201959	447.555817	119.050850	758.619507
2401.205259	451.763855	119.635292	740.910583
2401.208597	456.147278	120.628868	723.727661
2401.211935	459.011108	120.570427	707.187622
2401.215707	461.641144	120.511986	689.887756
2401.219042	464.504944	120.921104	673.639954
2401.221958	466.024536	121.505547	656.983032
2401.225762	468.245453	120.804207	642.021057
2401.229096	469.005249	120.336647	625.247192
2401.232356	470.232605	119.927528	609.408508
2401.235678	469.881958	119.284630	593.803589
2401.239020	469.998810	119.109306	578.607788
2401.242371	469.414368	118.583290	563.762695
2401.245739	468.713043	118.115730	548.917603
2401.249093	467.894775	116.654594	534.306274
2401.252424	466.550568	115.602570	520.045593
2401.255720	465.147858	115.427231	505.843384
2401.259007	463.160736	115.135002	491.173584
2401.262346	461.232025	114.316772	478.783203
2401.265715	459.946228	112.738754	465.223846
2401.269057	456.907074	111.862068	451.664490
2401.272369	454.218567	110.576271	437.637634
2401.275815	451.237854	108.881355	424.896545
2401.279111	449.075409	107.712448	413.324371
2401.282351	446.094666	107.128006	400.349487
2401.285691	443.113953	105.842201	389.011108
2401.289022	439.081238	104.848625	377.438934
2401.292369	434.990051	103.621269	366.275848
2401.295701	431.600220	102.744591	354.995911
2401.299102	427.625946	101.575684	344.534180
2401.302419	424.469879	100.231445	333.838684
2401.305792	419.852722	99.646988	324.019867
2401.309426	415.586182	98.478081	314.025726
2401.312806	411.787262	98.068970	304.382233
2401.316177	408.105194	96.841614	295.030975
2401.319544	403.078888	96.315598	285.621277
2401.322499	399.104614	94.503799	277.614258
2401.326177	394.779663	93.159561	270.191711
2401.329485	391.039154	92.458214	262.535370
2401.332874	387.123322	91.581535	254.294556
2401.336214	383.032135	90.821747	247.047333
2401.339574	378.298065	89.477509	240.501465
2401.342935	374.966675	88.425484	233.254211
2401.346223	370.466370	87.841034	227.643463
2401.349540	366.375214	86.905907	222.091187
2401.352902	363.160706	85.386330	216.188202
2401.356217	358.368195	84.568092	210.402084
2401.359649	354.919922	84.100533	205.200470
2401.362974	351.354736	82.347168	199.823486
2401.366298	347.848053	81.879608	195.323181
2401.369632	343.756836	81.178261	190.881348
2401.372981	340.834595	79.600235	185.738159
2401.376428	337.327881	78.781998	181.530106
2401.379724	333.821167	77.671539	176.386917
2401.383053	330.255981	76.385742	172.295715
2401.386421	326.632355	76.093513	168.379883
2401.389742	323.826996	74.924606	164.230270
2401.393068	320.086487	73.521919	160.431320
2401.396371	316.755127	73.405029	156.398590
2401.399746	313.482178	72.002342	152.190521
2401.403078	310.442993	70.424316	148.450027
2401.406403	307.403870	70.307426	145.527756
2401.409704	304.481598	68.963181	141.845703
2401.413083	301.267090	67.794273	137.462296
2401.416433	297.526581	67.911163	134.773804
2401.419793	294.662781	66.157799	131.091751
2401.423088	291.331390	65.631798	128.052597
2401.426402	288.759796	64.696671	125.247223
2401.429776	285.662201	64.229111	122.091171
2401.433098	282.973724	63.352425	119.168915
2401.436419	280.343658	62.767975	115.662170
2401.439722	277.246063	62.475746	113.207474
2401.443067	275.317352	61.189949	110.460556
2401.446426	272.745758	61.365288	107.479828
2401.449714	269.940399	60.079491	105.025131
2401.453498	267.602570	59.728813	102.979538
2401.456869	265.323212	59.085915	100.875504
2401.460173	263.277618	58.735245	98.829926
2401.463542	261.290466	58.384567	97.134995
2401.466866	258.718903	57.741676	95.323196
2401.470173	256.790192	57.741676	92.342499
2401.473543	254.744583	56.864990	91.407349
2401.476927	252.815903	56.572769	90.180008
2401.480203	251.120987	56.280540	87.900635
2401.483609	250.010529	55.637642	86.790176
2401.486945	247.906479	55.111633	85.445938
2401.490238	246.094681	54.936295	84.277039
2401.493566	244.224426	54.585625	82.173004
2401.496862	243.756866	54.118065	81.354752
2401.500228	241.360596	53.592049	80.536530
2401.503569	239.665680	53.066048	80.361191
2401.506893	239.022781	52.949158	77.964935
2401.510202	237.853882	52.540039	77.848038
2401.513525	236.509644	52.072472	76.737579
2401.516873	235.808304	51.663353	75.802460
2401.520265	234.697830	51.371124	74.984207
2401.523587	233.938049	51.195786	74.458221
2401.526872	232.243134	50.728226	73.464645
2401.530177	231.307999	49.851547	72.587952
2401.533562	230.314423	49.909988	72.178833
2401.536914	229.788422	49.208649	71.243713
2401.540274	229.087082	48.857979	71.009933
2401.543591	228.385727	49.150208	70.133255
2401.546927	227.099945	48.507301	69.198135
2401.550260	226.457031	48.565750	67.737000
2401.553573	225.755692	48.215080	67.678543
2401.557377	225.054352	47.221504	66.334305
2401.560660	223.651657	47.221504	66.451202
2401.563992	223.008759	46.637054	65.223846
2401.567385	222.307419	46.637054	65.340729
2401.570731	221.430740	45.994156	64.931610
2401.574039	221.021622	45.877266	63.528927
2401.577475	220.495621	46.227936	64.464050
2401.580758	220.028046	45.701927	63.470478
2401.584094	219.209808	45.585037	62.827587
2401.587452	218.859146	45.059029	61.834011
2401.590793	218.157806	44.883690	61.775570
2401.594125	217.865570	44.883690	61.308002
2401.597516	217.047333	44.825249	61.658680
2401.600838	217.047333	44.474579	61.249561
2401.604177	216.813553	44.591469	60.548214
2401.607483	217.339554	44.883690	60.606663
2401.610776	217.105774	45.468147	61.191113
2401.614094	217.339554	45.059029	60.723553
2401.617354	217.339554	44.766800	60.606663
2401.620682	217.807129	45.175926	60.606663
2401.623969	217.631790	45.351257	61.074223
2401.627346	218.099350	44.942139	61.366451
2401.630663	218.274689	45.234367	61.717121
2401.634392	218.625366	45.117477	62.243130
2401.638124	219.385147	44.649910	62.535358
2401.641463	219.618942	44.942139	62.418461
2401.644794	219.618942	45.175926	62.886028
2401.648125	221.080063	45.292816	64.756287
2401.651458	221.606079	45.000580	64.697830
2401.654796	222.307419	45.175926	65.340729
2401.658125	223.300995	44.240799	65.691406
2401.661458	223.885437	44.883690	66.918762
2401.664795	224.762131	44.942139	66.217422
2401.668142	225.814133	45.000580	67.210983
2401.671501	226.924591	44.649910	67.853882
2401.674795	227.742828	45.059029	68.263000
2401.678127	228.677963	45.117477	69.431915
2401.681456	229.554642	45.351257	69.315018
2401.684786	230.781998	44.416130	71.594391
2401.688125	231.892456	45.351257	71.360611
2401.691459	232.243134	45.351257	72.704849
2401.694796	233.645813	45.234367	72.763290
2401.698124	234.639389	45.175926	74.399765
2401.701456	235.749847	45.175926	74.867325
2401.704784	236.918762	45.000580	75.101105
2401.708123	237.853882	45.117477	76.386902
2401.711479	239.665680	45.409706	76.386902
2401.714788	240.308594	45.643486	77.263596
2401.718125	241.886612	45.701927	78.841614
2401.721452	243.230850	46.227936	80.185852
2401.724784	245.101105	46.520164	81.530090
2401.728119	246.386902	46.578613	81.588547
2401.731455	247.672714	46.929283	83.867920
2401.734807	249.075394	46.870834	84.978378
2401.738143	250.653412	47.221504	86.030380
2401.741455	252.056107	46.929283	88.075974
2401.744786	254.218582	47.864410	90.121567
2401.748114	256.322601	47.805962	90.998245
2401.751456	258.368195	48.098190	93.394501
2401.754799	260.296906	48.507301	94.446518
2401.758114	262.517822	48.448860	96.258331
2401.761453	264.738739	48.916428	97.544113
2401.764785	267.018127	48.565750	100.115707
2401.768112	269.589722	49.617767	103.271759
2401.771448	271.927551	49.909988	105.609573
2401.774780	274.499115	49.851547	107.830505
2401.778116	276.953827	50.611336	110.518982
2401.781446	279.525421	50.786674	113.207474
2401.784778	281.804779	50.669785	116.246628
2401.788115	285.136200	51.137344	118.350662
2401.791444	287.240204	51.663353	121.857391
2401.794781	289.928680	51.429573	124.896545
2401.798553	292.967865	51.371124	127.468140
2401.801886	295.831665	51.838692	130.448853
2401.805211	299.513733	51.604912	133.838684
2401.808545	301.793121	52.014023	137.754532
2401.811865	305.066040	52.189362	140.852127
2401.815243	308.105194	52.423141	144.241959
2401.818546	311.027466	52.832268	148.333145
2401.821868	313.715942	53.124489	151.196945
2401.825195	316.872009	52.832268	155.346573
2401.828559	320.437164	52.890709	159.846878
2401.831891	323.710114	53.358269	163.061356
2401.835221	326.866150	53.358269	166.977203
2401.838597	330.314423	53.708946	171.535919
2401.841865	333.528931	53.767395	174.808884
2401.845201	336.860321	53.884285	179.659851
2401.848544	340.717712	53.358269	184.686142
2401.851870	343.639984	54.585625	188.368210
2401.855194	347.497375	53.825836	193.511398
2401.858548	351.588531	54.293396	199.706604
2401.861867	354.569244	54.293396	204.090012
2401.865193	359.127991	54.994743	208.590302
2401.868555	362.459381	54.936295	214.434814
2401.871890	366.492126	55.345413	219.636475
2401.875244	369.940399	55.579193	225.714783
2401.878525	374.206879	56.222099	232.494446
2401.881861	378.005859	56.280540	238.748108
2401.885615	381.454132	56.163651	245.235535
2401.888952	385.545288	56.455879	252.716522
2401.892307	390.863800	56.631210	260.314423
2401.895683	394.779663	56.748100	268.672119
2401.899033	398.753937	56.748100	276.153107
2401.902373	402.494446	57.332558	283.926361
2401.905623	407.345398	57.683228	292.693176
2401.908951	411.962585	57.917007	301.226166
2401.912284	416.229095	57.507896	310.168335
2401.915640	420.904755	57.507896	320.045563
2401.918987	424.411438	56.806549	329.805939
2401.922350	428.444183	56.748100	339.624756
2401.925695	433.178253	55.929863	351.080078
2401.929075	436.451172	55.637642	361.308014
2401.932312	440.367035	55.403862	371.302124
2401.935614	444.224426	54.702515	382.815887
2401.938981	447.964935	53.825836	393.803589
2401.942300	452.114563	53.416718	406.135559
2401.945647	455.387482	52.715378	417.240204
2401.949032	458.075989	51.838692	430.156616
2401.952346	460.998230	50.552895	442.254822
2401.955641	465.030975	49.851547	455.404999
2401.958952	467.894775	48.273521	467.386292
2401.962299	470.291077	46.870834	480.711853
2401.965636	473.096436	45.643486	493.336060
2401.968971	475.142029	44.591469	506.544678
2401.972412	478.181152	43.305672	521.214478
2401.975692	479.525421	41.727646	534.540039
2401.979032	480.694336	40.208069	548.566895
2401.982739	482.564575	38.630035	563.353577
2401.986074	483.032104	37.227348	577.029785
2401.989471	484.902405	35.766220	591.465820
2401.992781	484.960815	34.129745	607.187622
2401.996121	484.843964	32.201050	622.149597
2401.999458	484.434814	30.681475	638.105225
2402.002765	484.434814	28.928110	654.469849
2402.006130	483.265900	26.707190	670.074829
2402.009426	482.623047	24.369375	686.264160
2402.012789	480.694336	22.382235	703.154846
2402.016194	478.999420	20.511984	719.694885
2402.019482	475.375793	18.057276	736.410278
2402.022816	472.570404	15.193455	754.353027
2402.026177	469.706604	12.914083	772.471130
2402.029563	464.972534	9.874928	790.705994
2402.032890	460.530701	6.952660	809.116333
2402.036203	454.803009	4.264172	827.409729
2402.039514	448.900055	1.108124	844.417358
2402.042846	443.055511	-2.807715	863.587341
2402.046177	436.568085	-6.022210	881.354797
2402.049508	428.151947	-9.996493	899.239014
2402.052863	419.618927	-14.730568	916.421936
2402.056207	410.326111	-18.821743	936.234924
2402.059574	401.442413	-23.146698	953.242554
2402.062867	390.980713	-27.530102	969.665649
2402.066211	380.285187	-31.445938	987.257751
2402.069500	368.420807	-36.530685	1003.856262
2402.072864	356.497925	-40.972530	1018.876648
2402.076588	344.633545	-45.706604	1034.890747
2402.079891	331.191132	-50.732903	1050.028198
2402.083313	318.157806	-55.700760	1064.639526
2402.086629	304.130920	-61.077728	1077.555908
2402.090021	289.461121	-65.987137	1091.875000
2402.093380	275.317352	-71.305664	1104.323853
2402.096682	259.829346	-77.442429	1115.954468
2402.099978	244.691986	-82.644066	1128.753906
2402.103274	228.853287	-88.254822	1137.812988
2402.106602	212.313263	-93.164230	1148.566895
2402.110060	195.539444	-98.482758	1156.866211
2402.113373	178.999405	-103.392166	1165.282349
2402.116680	161.582703	-108.886032	1171.594482
2402.120055	143.698425	-113.912331	1178.374146
2402.123379	127.099945	-118.587959	1183.984863
2402.126705	108.455872	-123.789597	1189.712524
2402.130063	90.279373	-128.699005	1193.102417
2402.133349	72.102859	-133.666870	1197.076660
2402.136698	53.517239	-138.400940	1198.713135
2402.140006	33.762711	-143.427246	1200.115845
2402.143328	15.177090	-148.161316	1201.693848
2402.146706	-2.707188	-153.129166	1202.687378
2402.150002	-22.520168	-157.220352	1201.343140
2402.153408	-40.930447	-161.545303	1199.706665
2402.156701	-59.457623	-165.811813	1197.368774
2402.160022	-78.218597	-169.669205	1193.160767
2402.163392	-95.985977	-174.111053	1189.186523
2402.166730	-114.746933	-177.383987	1183.692627
2402.170051	-133.391006	-180.949158	1177.731201
2402.173482	-151.684387	-184.689651	1169.841064
2402.176807	-169.334900	-188.079498	1161.483398
2402.180129	-186.167160	-191.936874	1153.301025
2402.183425	-202.648743	-194.625366	1144.826416
2402.186708	-219.130341	-198.307419	1134.130981
2402.190115	-235.962585	-200.528351	1122.792603
2402.193463	-251.041504	-202.690826	1111.337280
2402.196762	-267.406189	-205.087097	1099.765137
2402.200507	-281.549957	-207.600235	1085.796631
2402.203852	-295.576843	-209.821152	1074.224487
2402.207188	-308.259491	-211.165405	1059.963867
2402.210574	-321.818817	-213.503204	1044.300537
2402.213899	-333.683228	-214.555237	1029.455322
2402.217233	-345.722961	-215.665695	1015.194641
2402.220588	-356.769135	-217.535950	999.005310
2402.223927	-367.464661	-219.055527	984.569214
2402.227251	-377.867920	-219.698425	968.905884
2402.230599	-387.569824	-221.276443	953.359436
2402.233988	-395.927551	-221.568680	937.812927
2402.237301	-402.414948	-222.328461	921.039185
2402.240607	-410.655762	-222.971359	904.206909
2402.243971	-417.903015	-222.503799	889.303345
2402.247295	-423.455292	-223.555817	872.938599
2402.250667	-430.118042	-222.854492	858.093506
2402.253974	-436.079468	-222.912918	841.787292
2402.257303	-440.872009	-223.029816	825.656372
2402.260696	-445.722961	-221.744003	810.577454
2402.264021	-449.638824	-221.159576	793.511353
2402.267357	-452.794861	-220.692001	777.380493
2402.270810	-456.476929	-219.756882	762.827576
2402.274152	-458.931610	-219.113968	747.514893
2402.277471	-462.438354	-217.360611	731.442383
2402.280867	-463.782623	-216.074814	715.136169
2402.284175	-465.477478	-214.263000	701.518372
2402.287507	-468.224426	-212.275879	686.965515
2402.290969	-468.808899	-210.931625	672.178833
2402.294752	-470.153137	-209.236710	657.918152
2402.298064	-470.912903	-207.600235	643.657471
