time (s)	magX	magY	magZ
2604.543434	-247.417908	-43.544128	111.512558
2604.546863	-251.099945	-43.894798	115.253067
2604.550178	-254.139099	-44.537697	117.941559
2604.553480	-257.353607	-44.303917	121.331375
2604.556796	-260.568085	-44.479256	124.019867
2604.560104	-264.308594	-44.479256	127.701920
2604.563518	-268.165985	-44.654587	131.676208
2604.566884	-271.380493	-44.596146	135.241364
2604.570172	-274.828766	-44.654587	138.514313
2604.573444	-278.569275	-44.362366	142.371704
2604.576755	-282.309753	-44.596146	147.631790
2604.580116	-286.225586	-44.479256	152.015198
2604.583448	-290.083008	-44.011688	155.755692
2604.587268	-294.407959	-44.362366	160.431320
2604.590146	-297.914673	-44.070137	164.522491
2604.593846	-302.473419	-43.602570	170.834595
2604.597207	-306.213928	-43.894798	174.867325
2604.600520	-309.486847	-44.128578	182.289886
2604.603865	-315.331390	-44.245476	187.900650
2604.607236	-319.831665	-44.128578	193.686737
2604.610534	-324.390442	-43.894798	200.115707
2604.613894	-328.656921	-44.070137	206.427826
2604.617224	-333.157227	-44.303917	213.382828
2604.620544	-337.949738	-44.420807	220.863831
2604.623846	-342.625366	-44.245476	228.812378
2604.627198	-347.943909	-44.713036	236.994720
2604.630550	-352.035065	-44.946815	245.177094
2604.633873	-357.295135	-44.829926	253.242554
2604.637164	-362.087708	-46.115723	262.593811
2604.640434	-367.230865	-45.823494	272.120392
2604.643764	-372.140289	-46.115723	282.056091
2604.647099	-377.108124	-46.232613	292.050262
2604.650467	-382.543518	-46.583282	302.570435
2604.653808	-386.634705	-46.349503	312.097015
2604.657161	-391.076569	-46.524841	323.376984
2604.660883	-396.453552	-45.940384	334.715363
2604.664486	-400.077179	-45.823494	346.053772
2604.667825	-404.869659	-45.765053	357.450623
2604.671157	-408.843964	-45.472824	369.139679
2604.674493	-413.344269	-45.765053	380.828766
2604.677817	-417.786102	-44.596146	394.095856
2604.681158	-420.825256	-44.479256	406.310944
2604.684487	-424.682617	-43.135010	419.870239
2604.687824	-428.364716	-41.732319	432.669800
2604.691153	-432.397430	-41.089420	448.099335
2604.694510	-435.553467	-39.686733	460.898895
2604.697821	-438.125092	-38.225601	475.393341
2604.701150	-441.222687	-36.121567	489.011108
2604.704487	-443.443604	-34.543541	503.388672
2604.707816	-444.846313	-31.796610	519.110474
2604.711160	-446.307434	-29.341906	534.656921
2604.714489	-448.762146	-27.588545	550.028015
2604.717817	-449.463470	-25.133841	565.866760
2604.721152	-450.106384	-22.620689	582.172974
2604.724485	-449.931030	-19.347750	598.245483
2604.727818	-449.112823	-16.600819	614.493286
2604.731155	-448.177673	-14.204559	631.734680
2604.734478	-447.417908	-9.353595	649.911194
2604.737846	-445.255402	-6.080655	666.275818
2604.741149	-443.268280	-2.749269	684.277039
2604.744483	-440.346008	0.465224	701.635315
2604.747819	-436.722382	3.504382	720.630005
2604.751144	-432.455902	7.244886	738.338989
2604.754488	-426.728210	10.342489	756.515442
2604.757812	-421.059052	14.316774	773.932251
2604.761147	-414.337830	17.706604	792.985413
2604.764481	-407.441254	21.505552	812.564636
2604.767814	-398.791382	25.129164	830.273499
2604.771148	-390.316772	28.635885	849.385132
2604.774479	-380.848602	32.376389	867.152527
2604.777831	-370.153107	36.058441	884.335449
2604.781164	-358.405609	39.097603	900.992371
2604.784480	-346.073639	43.013443	918.000000
2604.787814	-334.033905	46.461723	934.890686
2604.791143	-320.533020	50.903564	950.729431
2604.794905	-305.687897	55.286972	964.873169
2604.798278	-290.141449	58.501457	979.192322
2604.801566	-274.887207	62.767975	992.693176
2604.804903	-259.165405	66.625366	1004.674500
2604.808231	-241.982483	71.476334	1015.603699
2604.811595	-224.390442	75.509064	1026.766846
2604.814919	-207.382812	80.009354	1035.942749
2604.818250	-188.738739	83.808296	1045.469360
2604.821584	-170.386902	88.776161	1050.904785
2604.824914	-151.450607	93.218010	1058.736450
2604.828228	-132.046768	98.127419	1062.067871
2604.831569	-112.701355	102.744591	1066.509766
2604.834902	-93.297501	107.478668	1069.315063
2604.838230	-73.192291	112.680305	1072.354248
2604.841587	-53.320873	117.823494	1072.237305
2604.844896	-32.689655	122.674461	1072.763428
2604.848226	-12.642902	126.239632	1071.477539
2604.851585	7.228519	130.623032	1068.438354
2604.854937	27.333721	135.415543	1065.165405
2604.858252	47.789597	139.331390	1059.846924
2604.861560	67.719460	143.188766	1055.463501
2604.864898	87.064873	146.578598	1048.683838
2604.868230	106.293396	149.851547	1040.384644
2604.871552	125.580353	153.066040	1032.669800
2604.875342	145.159561	156.338974	1023.260071
2604.878679	163.628281	158.443008	1013.090515
2604.882064	181.454117	160.839264	1002.102966
2604.884956	199.981293	162.826416	990.472229
2604.888747	217.222672	164.521332	977.555786
2604.891987	234.230270	165.222672	965.399231
2604.895316	250.653412	165.807129	951.547607
2604.898673	266.608978	165.982452	937.579224
2604.902036	281.395660	165.924026	921.448303
2604.905341	296.007019	166.040909	906.544739
2604.908730	309.741669	165.456451	889.946228
2604.912056	322.891876	164.638214	873.873779
2604.915408	335.691406	163.936874	857.041504
2604.918650	347.438904	162.592636	839.274109
2604.921979	359.011108	161.131500	821.915894
2604.925314	368.946808	160.137924	804.440674
2604.928706	378.648743	157.975449	786.381042
2604.932012	387.649323	156.689651	768.555237
2604.935384	395.656342	155.170059	751.138489
2604.938718	402.202209	153.358261	732.202209
2604.942076	409.390991	151.604904	714.084167
2604.945311	415.644653	150.026871	696.901245
2604.948642	420.203369	148.273529	678.958496
2604.951980	424.645233	146.870834	661.717163
2604.955348	428.268860	145.059021	643.832825
2604.958666	431.658691	143.247223	627.117432
2604.962096	433.704254	141.435410	609.876038
2604.965394	436.158966	140.208054	593.803589
2604.969066	438.204559	138.746918	576.620667
2604.972449	438.789032	137.285782	559.963745
2604.975848	439.373444	135.824661	544.358826
2604.979156	439.899475	134.480408	529.455261
2604.982498	438.964355	132.551712	512.973694
2604.985861	438.438324	131.207474	498.011719
2604.989201	436.977203	130.097015	483.751038
2604.992534	436.334320	128.402100	468.730560
2604.995877	433.938049	127.525429	455.112793
2604.999213	432.126251	125.304497	440.910583
2605.002537	429.846863	123.901817	427.000580
2605.005879	427.801270	121.505547	413.675018
2605.009220	425.463470	120.687325	401.109283
2605.012539	422.365875	118.700172	388.134430
2605.015870	419.326691	116.888374	376.211548
2605.019269	416.404449	114.609009	363.645813
2605.022577	413.189941	113.030975	352.190521
2605.025934	409.975433	111.219170	340.852112
2605.029270	405.533600	109.407372	329.981293
2605.032604	401.851532	106.777321	318.701355
2605.035931	397.292816	104.322617	308.181183
2605.039286	393.260071	102.510811	297.368805
2605.042654	388.935120	100.348335	287.433075
2605.045937	385.545288	97.835182	278.490936
2605.049255	381.687897	96.023384	269.139679
2605.052599	377.479828	93.276443	259.554626
2605.055893	372.161316	91.347755	251.255402
2605.059314	368.420807	89.419060	242.371704
2605.062607	364.095825	87.022797	233.955566
2605.065923	360.589142	84.918762	225.831696
2605.069265	355.679718	82.931625	218.175323
2605.073019	351.471649	81.412041	210.869659
2605.075951	347.205139	79.191116	204.148437
2605.079368	342.763275	77.437752	198.011688
2605.082673	338.321442	75.392174	190.706024
2605.086013	334.113373	74.515488	183.341888
2605.089777	329.496216	72.469902	178.432495
2605.093083	325.229675	71.125656	172.529510
2605.096496	320.846283	69.430740	166.626526
2605.099796	316.229095	68.086502	161.483337
2605.103129	311.962585	66.800705	156.340149
2605.106415	308.280518	65.514908	151.722961
2605.109750	304.540009	64.053772	147.047333
2605.113084	300.799530	63.177094	141.787247
2605.116374	297.059021	62.241966	137.462296
2605.119806	292.792542	61.891296	133.312668
2605.123149	289.052032	60.956161	129.104614
2605.126423	285.253052	59.611923	125.130325
2605.129769	282.739929	58.676796	121.974289
2605.133128	279.408539	57.683228	118.233765
2605.136437	275.375824	57.215660	114.142609
2605.139835	272.102875	56.280540	112.097015
2605.143193	268.946808	56.163651	108.940964
2605.146520	265.849213	55.228523	106.603149
2605.149902	262.342499	54.001175	102.804199
2605.153241	258.835754	53.358269	99.589706
2605.156590	256.497955	52.890709	96.375214
2605.159979	253.575684	51.488022	94.563400
2605.163260	250.478088	50.260666	91.933365
2605.166644	247.906479	49.851547	89.420227
2605.169927	245.159546	49.033318	86.497955
2605.173259	241.828171	48.331970	84.978378
2605.176581	239.548798	47.104614	81.822327
2605.179959	237.269424	46.052597	79.718292
2605.183296	234.405609	45.234367	76.971359
2605.186607	231.483337	43.890121	74.165985
2605.189922	228.794861	43.656342	71.886612
2605.193301	226.690811	42.779663	70.250137
2605.196605	224.060776	42.019867	68.730560
2605.200010	221.430740	40.734070	67.094101
2605.203320	219.560486	40.149620	64.756287
2605.206625	217.047333	39.331383	63.119808
2605.209984	215.177078	38.630035	62.067791
2605.213316	212.605484	37.928696	60.548214
2605.216647	210.969009	37.285797	58.444180
2605.220415	208.455872	36.175339	56.983051
2605.223725	206.819397	34.947983	55.405025
2605.226687	205.066040	34.597313	53.885448
2605.230449	203.195786	34.305084	52.365864
2605.233725	201.325531	34.012856	51.372295
2605.237102	199.805954	33.545296	50.261837
2605.240377	198.403275	33.136177	48.625362
2605.243698	196.708359	32.376389	48.157803
2605.247028	195.130341	32.960838	47.222675
2605.250332	193.902985	31.616598	45.878429
2605.253650	192.792526	31.324373	45.352421
2605.257040	191.506714	31.558153	44.709522
2605.260415	190.396255	31.382818	44.241962
2605.263737	189.052002	30.856810	43.891293
2605.267011	188.526001	31.265928	42.897717
2605.270321	187.181763	30.915255	41.962589
2605.273647	185.837509	30.798365	42.254818
2605.277035	185.369949	30.739920	41.378139
2605.280396	184.434830	30.856810	41.202808
2605.283724	183.441254	30.681475	40.267681
2605.287066	183.090591	29.804792	40.267681
2605.290387	181.804779	29.629457	38.981884
2605.293717	181.220337	29.571012	38.514317
2605.297054	180.869659	29.687902	37.286968
2605.300419	180.226761	29.161890	37.403858
2605.303766	178.765625	28.986555	37.111622
2605.307086	178.414963	28.869665	37.170071
2605.310834	177.947403	28.518991	36.293392
2605.314425	176.953827	27.642313	36.702511
2605.317756	176.544708	27.057859	36.234951
2605.321092	175.258911	26.765635	34.949154
2605.324429	174.966675	26.473406	34.890705
2605.327761	174.499115	26.473406	33.195789
2605.331090	173.914673	25.713617	33.488018
2605.334423	173.505539	25.538282	34.014027
2605.337755	173.330215	25.129164	33.312679
2605.341116	173.096436	24.953829	33.604908
2605.344420	172.804199	24.953829	33.137341
2605.347752	172.278198	24.310930	33.137341
2605.351083	172.453537	23.375803	31.968433
2605.354422	171.810638	23.258913	31.851543
2605.357764	171.752197	23.025133	32.436001
2605.361084	171.167725	22.791349	31.676212
2605.364422	171.167725	22.732904	31.150204
2605.367757	170.641739	22.966688	31.793102
2605.371082	170.817062	22.499125	32.494450
2605.374418	171.635300	22.499125	32.143772
2605.377756	171.401520	22.557570	32.494450
2605.381083	171.927521	22.148451	31.500874
2605.384442	171.693741	22.031561	31.909992
2605.387753	172.453537	21.622442	32.085323
2605.391084	172.570419	21.563997	32.143772
2605.394421	173.154877	21.797781	32.260670
2605.397754	174.031555	21.388662	32.669781
2605.401078	173.914673	21.271772	33.838688
2605.404417	174.674469	22.031561	33.838688
2605.407749	174.499115	22.206896	33.429569
2605.411083	176.077148	22.031561	34.247807
2605.414417	176.895370	21.563997	34.949154
2605.417753	177.012268	21.973116	35.299824
2605.421080	177.362946	21.856226	35.533604
2605.424426	178.005829	21.914671	36.351841
2605.427775	179.116302	22.440680	36.001163
2605.431080	180.402100	22.382235	37.111622
2605.434834	180.752777	22.382235	38.397427
2605.438167	181.921677	22.206896	38.105198
2605.441520	183.090591	21.856226	39.858562
2605.444833	183.675034	21.739336	40.150791
2605.448164	184.727051	21.622442	40.559902
2605.451504	186.012848	21.797781	41.728809
2605.454862	186.772644	21.096437	42.196369
2605.458197	188.467560	21.271772	42.137928
2605.461532	189.636459	21.505552	43.306835
2605.464841	190.454697	20.511984	43.540615
2605.468170	191.039154	20.570429	44.066624
2605.471534	192.850952	20.336647	44.651073
2605.474836	194.253647	20.044416	45.936871
2605.478168	195.597900	20.395092	46.755116
2605.481492	197.059021	19.459963	48.216244
2605.484841	198.461700	19.226183	49.092930
2605.488161	199.689056	19.050846	49.385151
2605.491523	201.500885	18.641729	49.969608
2605.494853	202.903564	18.933956	50.904728
2605.498237	204.247803	17.706604	51.956745
2605.501515	205.708939	18.232611	52.365864
2605.504833	207.228516	17.648157	54.060780
2605.508194	209.449448	17.765049	55.054356
2605.511495	211.144363	17.940384	57.041492
2605.514835	213.073044	17.472822	57.918179
2605.518626	215.001740	17.531267	59.087086
2605.521541	216.871994	17.122150	60.723553
2605.525354	219.268265	17.063705	62.827587
2605.528670	220.846283	17.589712	64.522507
2605.531956	223.534775	17.122150	65.925186
2605.535260	225.814133	17.531267	67.094101
2605.538588	228.444183	17.122150	70.016357
2605.541940	231.600235	17.589712	71.594391
2605.545276	233.938049	17.005259	73.932205
2605.548645	236.918762	17.472822	76.153122
2605.552011	239.315018	16.713032	79.250732
2605.555320	241.594376	17.239040	81.471649
2605.558589	245.101105	17.122150	84.744598
2605.561912	247.789581	17.180595	86.965515
2605.565249	251.588547	17.005259	89.537109
2605.568608	254.627686	17.180595	92.284042
2605.571935	257.608429	16.771479	95.440079
2605.575318	260.589142	16.654587	98.420807
2605.578650	264.154297	16.829924	101.401520
2605.581970	267.076569	16.888369	104.557571
2605.585240	269.765045	15.894798	107.655167
2605.588580	273.388672	15.485682	110.635880
2605.591958	276.369385	15.368790	114.084152
2605.595267	280.285217	15.310345	118.409119
2605.598648	283.382812	14.492109	120.922256
2605.601979	286.480408	13.907656	124.253647
2605.605332	290.045593	13.089420	128.461716
2605.609014	293.669189	12.504967	132.786667
2605.612405	297.468140	11.745178	136.819397
2605.615765	300.682617	11.102280	140.267670
2605.619103	304.715363	10.284044	145.352417
2605.622415	308.163666	9.348919	149.911163
2605.625753	312.605499	8.822910	154.703674
2605.629117	316.112213	8.004675	159.554642
2605.632435	320.495605	7.011105	163.879593
2605.635748	323.943878	6.251314	169.548798
2605.639147	327.976624	6.017534	175.042664
2605.642427	332.243103	4.381064	179.835175
2605.645804	336.100525	3.562828	184.978378
2605.649102	339.724152	2.569257	191.933380
2605.652431	344.575104	1.458796	198.537689
2605.655816	348.549377	0.874342	204.674469
2605.659125	353.400330	0.114552	210.928116
2605.662427	358.075989	-1.112800	218.116882
2605.665755	362.225586	-1.872590	225.890106
2605.669076	366.433655	-2.866160	234.364685
2605.672474	370.992401	-4.151958	242.722382
2605.675776	375.668030	-4.853302	251.606079
2605.679140	380.109863	-5.671537	259.379303
2605.682538	384.610168	-7.074226	269.139679
2605.685847	389.811798	-7.950906	278.315613
2605.689175	394.195221	-9.295149	287.959076
2605.692503	398.695496	-10.522502	298.362366
2605.695803	403.020447	-12.860316	309.817657
2605.699183	408.105194	-14.672122	321.156067
2605.702480	412.956146	-15.899475	332.669800
2605.706294	416.345978	-17.535944	343.482178
2605.709573	420.320282	-19.172413	355.872589
2605.712938	424.528351	-20.691994	368.964355
2605.716232	428.444183	-22.562244	380.419647
2605.719551	431.658691	-25.601402	393.219147
2605.722915	434.990051	-27.646992	406.427826
2605.726211	438.672119	-28.932789	418.818237
2605.729552	440.893036	-32.147285	433.721802
2605.732839	443.990631	-34.894215	448.040924
2605.736204	446.094666	-37.699593	462.184662
2605.739560	448.257141	-40.446522	475.685547
2605.742866	450.010529	-44.362366	490.705994
2605.746196	451.296326	-47.226181	505.258911
2605.749562	452.582092	-51.668030	520.162476
2605.752916	454.686157	-55.350090	536.585632
2605.756300	454.919952	-58.447693	550.904724
2605.759647	454.043243	-62.831093	566.275818
2605.762980	453.984802	-67.039162	582.172974
2605.766289	454.569214	-71.773232	598.420837
2605.769614	453.283447	-76.156631	614.025696
2605.772913	451.471649	-80.540031	630.331970
2605.776264	449.718262	-84.864990	647.924011
2605.779616	448.140259	-89.365280	664.873169
2605.782924	444.984192	-93.982468	680.945618
2605.786662	441.419037	-98.541206	697.836365
2605.790019	437.912323	-103.158386	715.837524
2605.793386	432.944458	-108.301575	733.254272
2605.796687	428.035065	-112.860321	751.489197
2605.800065	422.190521	-118.237289	769.198059
2605.803368	416.170654	-122.679138	787.433105
2605.806695	408.689636	-128.231445	804.966675
2605.810047	400.507294	-133.491531	824.195251
2605.813435	391.974274	-137.874924	841.904114
2605.816721	382.739899	-143.193466	859.496155
2605.820109	372.570435	-147.635315	877.789551
2605.823407	362.576263	-152.603165	894.212769
2605.826786	350.828766	-157.804810	911.570984
2605.830085	338.146088	-162.538864	931.033264
2605.833448	325.755707	-168.324966	945.703064
2605.836761	312.079498	-173.117477	961.717102
2605.840098	298.111053	-178.085327	976.620728
2605.843426	283.441284	-182.585632	990.939758
2605.846718	268.362366	-188.196381	1005.025208
2605.850054	252.699005	-193.281128	1017.649353
2605.853352	235.808304	-199.359451	1027.585083
2605.856700	218.566910	-204.151962	1039.858643
2605.860065	200.857971	-208.827591	1050.846313
2605.863388	183.149017	-214.555237	1059.379395
2605.866693	164.797180	-219.523087	1067.327881
2605.870080	145.510223	-224.724731	1074.925781
2605.873865	127.158386	-230.335495	1080.828735
2605.876761	108.455872	-235.478683	1085.446045
2605.880506	88.993576	-240.095840	1089.829346
2605.883801	70.349503	-245.239044	1093.102417
2605.887147	51.471653	-250.206894	1094.446533
2605.890426	31.132671	-254.473419	1094.388184
2605.893847	11.962593	-258.739899	1094.446533
2605.897145	-7.149033	-263.298676	1093.102417
2605.900458	-25.851543	-267.272949	1090.413818
2605.903824	-45.080074	-271.188782	1087.959106
2605.907173	-63.198139	-274.987732	1082.698975
2605.910458	-81.783768	-277.617767	1077.964966
2605.913769	-99.784927	-281.241394	1071.419067
2605.917145	-117.727646	-283.696106	1065.223877
2605.920515	-135.611938	-285.800110	1057.216797
2605.923851	-152.853302	-287.845703	1047.281250
2605.927150	-170.036240	-289.482178	1038.631226
2605.930453	-186.167160	-290.884857	1028.403320
2605.933770	-201.479828	-291.995331	1017.999939
2605.937225	-217.493866	-292.287567	1006.369324
2605.940520	-232.631226	-291.761566	994.972595
2605.943824	-247.008759	-291.995331	982.348328
2605.947166	-261.269440	-291.118652	969.022827
2605.950933	-275.296326	-290.884857	954.002319
2605.954362	-288.621857	-289.832855	939.624756
2605.957690	-301.246063	-288.547058	925.422546
2605.961028	-313.344269	-287.085937	909.876099
2605.964372	-325.676208	-284.748108	893.219116
2605.967697	-336.547058	-283.053192	877.322083
2605.971029	-346.833435	-281.007599	860.723572
2605.974362	-356.476929	-278.202209	844.066589
2605.977695	-365.185272	-275.455292	827.818848
2605.981022	-374.185852	-273.409729	810.343689
2605.984359	-381.374664	-270.662781	793.453003
2605.987693	-388.797211	-268.091187	775.334900
2605.991025	-394.992401	-264.058441	758.736450
2605.994384	-399.668030	-262.012848	740.326111
2605.997692	-405.746338	-258.856812	724.312073
2606.001025	-410.538879	-256.460571	706.720032
2606.004359	-415.097595	-252.544708	689.011108
