time (s)	magX	magY	magZ
5408.044576	238.321442	56.105202	129.805954
5408.047908	234.756271	56.338989	124.662766
5408.051271	231.658676	55.286972	120.688477
5408.054553	228.794861	54.176506	116.714203
5408.057899	224.820557	53.708946	112.798370
5408.061204	221.781403	53.650497	108.765625
5408.064555	218.216232	52.364700	105.083572
5408.067874	215.118637	51.897133	101.693741
5408.071217	211.845703	51.604912	97.602570
5408.074548	209.098770	51.371124	95.673859
5408.077918	206.059601	51.078896	91.874924
5408.081232	203.897125	50.202225	89.011108
5408.084574	200.974869	49.442429	86.439514
5408.087879	198.052597	49.325539	82.231430
5408.091208	195.422546	48.624191	80.010513
5408.094576	193.376968	48.273521	77.906494
5408.097883	190.980713	47.922852	75.627121
5408.101210	188.526001	47.805962	73.698425
5408.104538	186.188187	47.338394	71.769730
5408.107886	184.201050	47.221504	69.490356
5408.111230	181.687897	46.403275	67.678543
5408.114563	179.642303	46.169487	65.749863
5408.117901	178.239624	45.468147	64.931610
5408.121209	175.960251	45.643486	63.412037
5408.124964	174.206894	45.059029	62.126240
5408.128296	172.628860	44.942139	60.781994
5408.131659	170.583282	44.942139	60.489773
5408.134990	168.946808	44.708359	58.151958
5408.138412	166.842789	44.299240	55.463474
5408.141726	165.498550	44.357689	55.697254
5408.145034	163.569839	43.890121	54.177670
5408.148296	162.108704	43.656342	53.125652
5408.151655	160.180008	43.188782	51.606075
5408.154956	158.485092	43.481003	51.021618
5408.158311	156.965515	43.071892	48.917591
5408.161653	155.329056	42.662773	47.456455
5408.165047	153.867920	41.844536	46.696667
5408.168391	152.874344	41.786087	45.995319
5408.171632	151.120987	41.552307	44.709522
5408.174962	150.185852	40.850960	43.774403
5408.178287	148.549393	40.792519	42.897717
5408.181677	146.796021	40.091179	41.611919
5408.184995	145.744003	40.500290	40.384571
5408.188374	144.867325	40.091179	39.157215
5408.191699	143.347748	39.331383	38.397427
5408.195031	141.652832	39.272942	37.228519
5408.198284	140.893036	39.097603	36.176502
5408.201621	139.665695	39.097603	35.299824
5408.204993	138.905899	38.220924	35.358265
5408.208806	137.152542	38.513145	34.072468
5408.211743	136.568085	38.571594	33.254230
5408.215066	135.340729	37.987137	33.312679
5408.218778	134.756287	37.753357	32.669781
5408.222102	133.762711	37.461136	32.202221
5408.225428	132.710693	37.227348	32.319111
5408.228784	132.126236	37.227348	31.909992
5408.232120	131.658676	37.461136	31.033314
5408.235442	130.606659	37.227348	30.215076
5408.238729	130.197540	36.584450	30.098186
5408.242119	129.496201	36.642899	29.338398
5408.245404	128.853302	36.701340	29.221508
5408.248784	127.976624	36.876678	29.513729
5408.252121	127.567505	36.935127	29.630619
5408.255471	127.216827	36.701340	29.572178
5408.258747	127.216827	36.818237	28.695499
5408.262064	127.158386	36.642899	29.279949
5408.265460	127.216827	36.876678	28.461716
5408.268815	126.515488	36.526009	27.526592
5408.272150	125.697250	36.526009	27.526592
5408.275463	125.989487	36.876678	28.344826
5408.278764	125.405029	37.052017	27.877262
5408.282093	125.521912	36.701340	27.643482
5408.285497	125.346573	37.168907	27.643482
5408.288809	125.054352	36.409119	27.760372
5408.292130	125.697250	36.642899	27.935703
5408.295468	125.580353	36.526009	28.227936
5408.298810	125.171249	36.409119	28.403275
5408.302551	124.879013	36.701340	27.175919
5408.305824	124.995911	36.701340	28.227936
5408.309145	124.586792	36.526009	27.409698
5408.312470	124.645233	37.168907	27.643482
5408.315794	125.171249	36.876678	26.825245
5408.319122	124.879013	36.467560	27.234360
5408.322486	124.411453	36.642899	27.994152
5408.325825	124.879013	36.935127	27.234360
5408.329162	124.995911	36.993568	27.409698
5408.332446	124.645233	37.110458	26.942139
5408.335774	125.054352	36.876678	27.000580
5408.339078	125.054352	36.701340	27.000580
5408.342537	125.463470	36.642899	26.766800
5408.345802	125.521912	37.227348	27.059029
5408.349105	126.106369	36.876678	27.234360
5408.352403	125.521912	37.168907	26.883690
5408.355734	125.814133	36.701340	27.234360
5408.359126	126.690826	37.052017	27.059029
5408.362434	126.515488	37.636467	27.059029
5408.366150	126.457047	37.227348	27.701923
5408.369432	127.742844	37.519577	28.286385
5408.372747	127.684387	37.578026	28.461716
5408.376009	128.268845	38.688484	28.695499
5408.379373	128.736420	38.688484	29.046169
5408.382710	129.496201	38.922272	29.455288
5408.386029	130.372879	39.272942	30.390415
5408.389319	131.132675	39.214493	30.974865
5408.392611	132.535355	39.740501	32.026882
5408.395927	133.528931	40.383400	32.494450
5408.399237	134.113388	40.500290	33.312679
5408.402600	135.165405	40.909409	34.189358
5408.405986	136.275864	41.610756	34.890705
5408.409292	136.977203	41.727646	35.884274
5408.413047	138.555222	42.019867	36.994732
5408.416391	139.315018	42.195206	37.111622
5408.419710	140.191696	42.721214	38.338978
5408.423040	141.594391	43.364113	38.689655
5408.426357	142.295731	43.597893	38.864994
5408.429655	144.165985	44.182350	40.501461
5408.432975	144.925766	44.591469	41.436588
5408.436277	146.094681	44.649910	42.313267
5408.439600	147.322037	44.649910	43.306835
5408.442908	148.841614	45.351257	43.540615
5408.446285	149.835175	46.286385	44.592632
5408.449584	151.530106	46.637054	44.709522
5408.452867	152.406769	47.104614	46.053768
5408.456175	153.809464	47.104614	46.521336
5408.459929	154.978378	48.039742	48.157803
5408.463256	156.907074	48.741081	48.683811
5408.466553	158.075974	49.033318	49.735821
5408.469851	159.069550	49.500877	51.196957
5408.473152	161.407364	49.559319	52.248974
5408.476584	162.050262	50.319115	53.008762
5408.479879	164.271194	50.085327	55.229687
5408.483193	166.199890	50.377556	55.931034
5408.486529	168.420807	51.488022	57.684399
5408.489894	169.531265	52.364700	59.613087
5408.493196	171.050842	53.066048	60.080654
5408.496580	173.154877	53.592049	61.775570
5408.499831	175.258911	53.942726	63.938046
5408.503201	177.596725	54.468735	65.516083
5408.506501	180.051437	55.754532	67.503204
5408.509823	181.863235	56.455879	69.490356
5408.513122	184.551727	56.455879	71.477493
5408.516930	186.889542	57.332558	73.815308
5408.520227	188.876678	58.735245	76.737579
5408.523524	190.980713	59.378143	79.309174
5408.526848	194.078308	60.079491	81.237869
5408.530205	196.065460	61.365288	85.095261
5408.533511	199.396835	62.534195	87.783752
5408.536891	202.026871	63.293983	91.290466
5408.540177	204.306259	63.995331	94.037399
5408.543569	207.228516	64.930450	97.953247
5408.546832	210.384567	66.157799	101.167725
5408.550154	213.014618	67.209816	104.499115
5408.553462	215.410858	68.261833	108.824066
5408.556807	218.566910	69.255409	112.447678
5408.560134	221.547623	70.541206	116.129730
5408.563450	224.411453	71.534782	120.922256
5408.566756	228.151947	72.060783	124.896545
5408.570515	231.015778	73.872589	128.578613
5408.574100	234.347168	74.807716	133.078888
5408.577401	237.152542	75.742844	137.403854
5408.580732	240.016357	76.327293	141.787247
5408.584070	243.113968	77.554649	147.047333
5408.587400	246.328461	78.431328	151.722961
5408.590738	249.601395	79.600235	156.573929
5408.594067	252.582108	80.652252	161.424896
5408.597400	256.030396	81.762718	166.801865
5408.600734	258.952667	83.048515	172.821747
5408.604087	261.407379	84.158974	178.140259
5408.607444	264.446503	85.152542	183.634125
5408.610742	267.894806	86.204559	188.835770
5408.614064	271.167755	87.431908	195.206314
5408.617413	274.440674	88.542381	202.044418
5408.620730	277.479828	89.477509	207.479843
5408.624071	280.635895	89.828171	214.610153
5408.627401	283.733490	91.698425	221.682068
5408.630731	286.421997	92.516663	229.221497
5408.634065	289.227356	93.627121	236.936279
5408.637402	292.558746	94.153130	245.177094
5408.640728	295.948578	95.672707	253.242554
5408.644064	298.812378	96.374046	262.243134
5408.647421	301.909973	98.185860	271.886627
5408.650731	303.780243	98.828758	281.237885
5408.654065	306.760956	99.822334	290.179993
5408.657398	308.981873	101.692581	300.174164
5408.660734	311.436584	102.101700	310.752777
5408.664059	313.657501	103.855049	322.091187
5408.667399	316.345978	104.381065	333.955566
5408.670727	318.508453	105.549973	345.060181
5408.674124	319.735809	106.309761	356.866150
5408.677393	320.495605	106.660439	368.789001
5408.680728	322.015198	108.413795	381.530090
5408.684060	323.593231	109.407372	393.745178
5408.687397	323.417877	110.400940	407.070679
5408.690764	324.119232	110.810059	420.454712
5408.694059	324.060791	111.102287	433.371124
5408.697819	322.950317	111.686729	448.040924
5408.701141	322.248962	112.329628	461.366455
5408.704480	321.021606	112.972534	475.744019
5408.707807	319.677399	112.738754	488.485107
5408.711166	317.748688	112.797188	502.453552
5408.714511	315.527771	112.446526	516.012878
5408.717833	312.956146	111.978966	530.331970
5408.721194	309.916992	111.628288	543.365295
5408.724485	306.234955	111.452950	557.333740
5408.727818	301.909973	110.400940	571.302124
5408.731145	297.935730	110.167160	586.030396
5408.734504	292.850952	108.589127	599.472839
5408.737813	287.824677	107.069557	613.090576
5408.741147	283.149048	105.316185	626.883728
5408.744470	277.362946	104.381065	640.384583
5408.747852	270.700195	103.036827	653.885437
5408.751168	263.686737	100.815895	666.451172
5408.754497	256.030396	98.711861	679.542908
5408.757836	247.789581	97.016945	691.874939
5408.761147	238.730560	95.146690	703.622437
5408.764473	229.846863	92.282883	716.714172
5408.767815	218.976028	89.769722	728.461731
5408.771145	208.748093	86.730568	740.092346
5408.774482	197.935715	83.983635	750.904724
5408.777833	186.188187	80.886032	761.950867
5408.781588	173.330215	77.963768	772.529480
5408.785003	160.238464	73.872589	782.406738
5408.788306	147.322037	70.541206	790.939758
5408.791588	133.236694	67.385155	799.531250
5408.794886	119.034485	63.586205	808.122681
5408.798231	103.721802	59.787254	815.136169
5408.801588	88.642899	56.105202	821.623596
5408.804909	73.447105	51.838692	827.059021
5408.808331	56.790180	47.396843	831.208679
5408.811667	40.016365	42.896553	835.065979
5408.815006	23.827000	38.454704	837.929871
5408.818236	7.403858	34.071304	839.507935
5408.821591	-9.253071	29.512568	840.501465
5408.824894	-25.968441	24.720045	839.975403
5408.828251	-42.391582	20.219753	839.157227
5408.831590	-58.873173	16.245470	838.280518
5408.834999	-74.828751	11.745178	835.299805
5408.838333	-90.609009	6.835768	830.916443
5408.841561	-105.687912	2.101694	826.299255
5408.844910	-120.591476	-2.515489	820.863770
5408.848223	-135.962601	-6.314436	814.493225
5408.851585	-149.697266	-12.568089	807.772034
5408.854916	-164.074814	-15.957920	801.343140
5408.858304	-176.874344	-20.516657	792.342529
5408.861626	-190.082993	-24.549387	783.809448
5408.864940	-201.246063	-29.049679	774.399719
5408.868676	-212.759796	-32.381065	765.165405
5408.872017	-224.390442	-36.589130	754.586792
5408.875398	-233.858582	-40.388077	743.073059
5408.878732	-245.255402	-43.836357	733.137329
5408.881676	-254.372894	-47.459969	720.571594
5408.885405	-263.315033	-50.732903	708.882507
5408.888777	-271.672729	-54.414963	696.901245
5408.892136	-279.738190	-57.804794	684.803040
5408.895527	-287.452942	-60.668617	671.828186
5408.898834	-294.407959	-63.357101	659.203979
5408.902144	-300.895386	-65.811806	645.410889
5408.905431	-306.389252	-68.558739	632.669800
5408.908775	-312.233795	-70.779663	618.292236
5408.912112	-317.260101	-72.942139	604.265320
5408.915483	-321.701935	-75.396851	589.770874
5408.918776	-325.968445	-76.916428	575.568665
5408.922110	-329.767395	-78.611336	561.950867
5408.925452	-332.806549	-80.481590	547.047363
5408.928773	-335.495026	-81.416710	533.078918
5408.932079	-338.008179	-82.468727	517.766174
5408.935478	-339.527771	-83.403854	502.979553
5408.938813	-341.222687	-84.163643	488.894226
5408.942141	-342.683807	-84.748100	474.750427
5408.945486	-343.151367	-85.332550	460.606689
5408.948824	-343.092926	-85.975456	447.105804
5408.952193	-341.924011	-85.390999	432.552856
5408.955519	-342.040924	-86.384567	418.818237
5408.958839	-340.755127	-85.566330	405.784912
5408.962172	-339.586212	-85.624779	392.576263
5408.965522	-338.241974	-85.917007	379.484528
5408.968851	-336.488617	-85.566330	367.737000
5408.972186	-334.618347	-85.157219	355.229706
5408.975532	-332.222107	-84.572769	344.008179
5408.978900	-330.176514	-84.105194	332.962006
5408.982223	-327.254242	-83.462303	322.500275
5408.985971	-324.799530	-83.286964	311.629456
5408.989313	-321.468140	-83.286964	301.226166
5408.992609	-319.247223	-82.059616	290.822906
5408.995898	-315.214508	-81.533600	282.640564
5408.999210	-311.941559	-80.832260	274.107544
5409.002600	-308.785492	-79.838692	265.399170
5409.005930	-305.629456	-79.312683	256.690826
5409.009246	-302.122742	-79.020454	248.683807
5409.012611	-298.849823	-78.143776	240.910583
5409.015916	-295.226196	-77.208649	233.546448
5409.019234	-291.251923	-77.559319	226.533020
5409.022534	-287.803619	-76.039742	219.168915
5409.025854	-284.472229	-75.630623	212.097000
5409.029190	-280.614838	-75.104614	205.492691
5409.032471	-276.582123	-73.877266	200.641739
5409.035885	-273.250732	-73.526588	193.745163
5409.039193	-270.036224	-72.416130	187.725311
5409.042515	-266.412628	-72.357681	182.056091
5409.045850	-262.438324	-70.838104	176.211578
5409.049178	-259.223846	-70.019867	170.659256
5409.052525	-255.892456	-68.967857	166.042068
5409.055878	-251.509064	-68.850967	160.314438
5409.059576	-247.943909	-67.857399	154.995895
5409.062833	-244.086487	-67.039162	150.904739
5409.066158	-241.105774	-65.636467	145.469315
5409.069442	-237.599091	-64.584450	140.326126
5409.072800	-234.326141	-63.883110	135.650482
5409.076144	-231.170074	-63.532433	130.507294
5409.079455	-227.780273	-62.129745	126.649902
5409.082771	-224.331970	-61.545296	122.617172
5409.086099	-220.474579	-60.376389	118.818222
5409.089392	-217.727661	-59.324371	115.077728
5409.092719	-213.753357	-58.739922	111.161896
5409.096456	-210.772644	-57.687904	107.830505
5409.099749	-207.967270	-56.811218	104.382217
5409.103069	-204.986557	-56.051430	100.700165
5409.106445	-201.655182	-55.116310	97.602570
5409.109793	-199.025146	-54.239624	94.680298
5409.113092	-196.102875	-53.655174	92.284042
5409.116429	-193.472824	-52.544716	89.244888
5409.119742	-191.368790	-52.194038	86.205734
5409.123099	-188.680313	-51.492691	83.341904
5409.126407	-186.751617	-50.732903	80.302750
5409.129758	-184.647583	-49.622444	78.549377
5409.133105	-181.199310	-49.505554	76.620682
5409.136416	-179.329056	-49.037987	74.399765
5409.139735	-177.225006	-48.336647	72.880188
5409.143041	-174.711868	-47.635300	71.535950
5409.146356	-172.490952	-46.875511	69.139679
5409.150124	-169.977798	-47.167740	67.970779
5409.153423	-168.224442	-46.817070	66.451202
5409.156764	-166.997086	-46.407951	64.697830
5409.160049	-165.126846	-45.472824	63.587368
5409.163438	-162.964355	-44.713036	61.658680
5409.166739	-161.152542	-45.063705	60.898884
5409.170072	-159.457626	-44.187027	58.853306
5409.173455	-158.697830	-44.070137	57.742840
5409.176751	-157.353607	-43.661018	57.099941
5409.180078	-155.366455	-43.661018	55.814144
5409.183401	-154.489777	-43.310341	54.645229
5409.186697	-152.210403	-43.193451	53.125652
5409.190066	-151.099945	-42.667442	52.248974
5409.193362	-149.931046	-42.375221	50.904728
5409.196679	-147.827011	-41.673874	50.261837
5409.199961	-145.898315	-41.498539	48.859150
5409.203257	-145.080078	-41.381645	48.157803
5409.207068	-143.326721	-40.680305	47.748684
5409.210669	-142.216263	-40.329632	47.105785
5409.214010	-141.398010	-40.212742	45.060200
5409.217354	-139.819992	-39.160725	44.475742
5409.220665	-138.651093	-39.102280	43.365276
5409.224006	-137.248398	-38.634720	42.547047
5409.227333	-135.845718	-38.342491	40.910572
5409.230722	-134.443024	-38.225601	41.261250
5409.234006	-133.040329	-38.225601	39.917011
5409.237338	-131.754532	-37.758038	38.923435
5409.240667	-130.877853	-37.524254	37.929867
5409.244004	-129.708954	-36.998245	38.163647
5409.247337	-128.598495	-36.413795	37.286968
5409.250673	-127.663361	-36.589130	36.176502
5409.254007	-126.786682	-36.004677	35.592045
5409.257337	-126.552902	-35.712448	34.832264
5409.260686	-125.383987	-36.063118	34.130917
5409.264001	-124.974869	-35.537113	33.955578
5409.267335	-124.273529	-35.303329	34.130917
5409.270666	-123.104630	-35.420219	33.604908
5409.274002	-122.870850	-35.069550	32.552891
5409.277332	-122.637054	-34.601990	32.786671
5409.280668	-121.585037	-35.244888	33.312679
5409.284004	-121.643494	-35.127995	32.962009
5409.287329	-120.649918	-35.595558	32.669781
5409.290729	-120.416138	-35.420219	31.442432
5409.293999	-121.117477	-35.127995	31.968433
5409.297334	-120.123917	-35.244888	31.968433
5409.300664	-119.773239	-35.420219	32.026882
5409.303996	-119.656357	-34.894215	32.026882
5409.307329	-119.831680	-35.303329	32.085323
5409.310669	-119.305679	-34.835770	32.260670
5409.313996	-118.838104	-35.011105	31.793102
5409.317329	-118.604324	-35.361778	31.734653
5409.320688	-118.429001	-35.420219	31.734653
5409.323997	-118.896561	-35.654003	31.383984
5409.327333	-118.896561	-35.069550	31.617764
5409.330662	-118.487442	-35.186440	32.143772
5409.334001	-118.370544	-35.537113	31.208652
5409.337323	-118.312103	-35.654003	31.500874
5409.340656	-118.078323	-35.478668	31.033314
5409.343999	-118.078323	-35.361778	31.442432
5409.347329	-118.136765	-35.069550	31.442432
5409.351115	-117.902985	-34.835770	31.325542
5409.354442	-117.727646	-35.654003	31.208652
5409.357761	-118.253662	-34.835770	31.793102
5409.361081	-118.019882	-35.127995	31.091763
5409.364446	-117.727646	-34.777321	31.150204
5409.367747	-118.078323	-35.069550	31.091763
5409.371084	-117.902985	-34.835770	31.150204
5409.374414	-117.844543	-35.127995	30.507305
5409.377749	-117.435425	-35.303329	31.091763
5409.381131	-117.435425	-35.186440	31.617764
5409.384439	-117.786102	-35.829338	31.442432
5409.387773	-118.545883	-35.420219	30.857975
5409.391078	-118.195221	-35.361778	31.676212
5409.394445	-118.896561	-35.537113	30.916424
5409.397748	-119.714783	-36.063118	31.325542
5409.401084	-119.890137	-35.361778	31.734653
5409.404410	-120.474579	-35.595558	31.617764
5409.407750	-120.883698	-36.472237	31.851543
5409.411077	-121.351257	-36.472237	32.260670
5409.414432	-121.351257	-36.939804	33.371128
5409.417795	-122.520157	-37.056694	33.488018
5409.421109	-122.987732	-37.348919	33.312679
5409.424403	-123.922852	-37.290474	33.429569
5409.427745	-124.682648	-37.991817	34.189358
5409.431087	-125.208649	-38.050262	35.066044
5409.434826	-125.851547	-38.459381	35.884274
5409.438194	-127.604919	-38.693161	36.760952
5409.441514	-127.897141	-39.043835	37.520748
5409.444958	-129.007599	-40.154297	37.988308
5409.448253	-129.650497	-39.686733	38.689655
5409.451505	-131.111633	-40.446522	39.040325
5409.454840	-132.280548	-40.680305	39.917011
5409.458162	-133.274124	-40.972530	41.319698
5409.461520	-134.267685	-41.732319	41.962589
5409.464855	-135.962601	-41.673874	42.196369
5409.468254	-136.605499	-42.316772	42.897717
5409.471578	-138.241974	-42.959671	44.066624
5409.474833	-138.943314	-43.076561	44.592632
5409.478157	-140.346008	-43.544128	45.352421
5409.481492	-141.281128	-44.011688	45.936871
5409.484880	-142.683823	-44.713036	47.105785
5409.488202	-143.852722	-45.122154	47.456455
5409.491570	-144.904739	-45.648163	48.742252
5409.494909	-146.658096	-45.414375	49.385151
5409.498179	-148.060791	-46.349503	50.612507
5409.501492	-149.405029	-46.817070	51.839855
5409.504861	-150.632385	-47.576859	52.950321
5409.508185	-152.151962	-47.869080	53.943890
5409.511511	-153.437775	-48.219757	54.820568
5409.514917	-154.898895	-48.921097	55.989475
