time (s)	magX	magY	magZ
3965.496596	-295.167755	-121.159554	206.953812
3965.499954	-299.843384	-124.666267	215.954407
3965.503285	-304.051453	-127.763878	224.896545
3965.506593	-308.025726	-131.562836	233.955566
3965.510018	-312.350677	-134.660431	243.014618
3965.513339	-317.669220	-138.284042	252.658081
3965.516701	-321.585052	-142.375229	261.658661
3965.520068	-325.734650	-145.472824	271.945068
3965.523385	-329.416718	-149.154877	283.400360
3965.526695	-333.566345	-153.070724	294.154297
3965.530048	-337.306854	-157.045013	305.609589
3965.533415	-341.690247	-161.369965	316.947968
3965.536777	-345.080078	-164.876678	329.805939
3965.540074	-348.411469	-169.084763	342.313263
3965.543377	-351.158386	-172.942139	356.106354
3965.546776	-353.729980	-176.857986	369.899475
3965.550093	-356.360016	-180.423141	384.277008
3965.553419	-359.574524	-183.988312	400.758606
3965.556699	-361.386322	-188.254822	415.545288
3965.560070	-363.373474	-191.352432	431.676208
3965.563433	-365.769745	-194.800705	449.151367
3965.566752	-367.289307	-198.774994	465.983643
3965.570041	-367.932190	-201.054367	483.751038
3965.573402	-368.691986	-204.561081	501.752197
3965.577153	-368.399780	-207.191132	520.688477
3965.580113	-367.756866	-210.347168	540.618347
3965.583407	-365.886597	-212.684982	560.606689
3965.587158	-364.367035	-214.730560	579.776733
3965.590468	-361.269440	-217.477509	599.239014
3965.593782	-357.879608	-218.938629	620.454712
3965.597198	-354.197571	-220.750443	641.436584
3965.600533	-348.586792	-222.211563	660.723572
3965.603878	-342.508484	-223.322052	681.004089
3965.607231	-336.430145	-225.250732	700.466370
3965.610566	-328.949158	-226.361191	720.454712
3965.613855	-320.299225	-227.062546	739.800110
3965.617205	-310.012848	-227.880783	759.437744
3965.620517	-299.551147	-227.588547	777.789551
3965.623894	-288.738739	-227.530121	795.849182
3965.627188	-277.049683	-227.705444	813.558167
3965.630509	-263.957916	-227.705444	830.098206
3965.633892	-250.924591	-227.062546	845.235474
3965.637188	-236.722382	-226.828766	860.548157
3965.640590	-221.468140	-226.010529	874.692017
3965.643947	-206.272354	-225.426071	887.725281
3965.647286	-189.790771	-224.315613	899.239014
3965.650604	-173.250732	-222.679138	911.161865
3965.653921	-155.717133	-220.867340	922.675659
3965.657225	-138.651093	-218.471069	930.741089
3965.660631	-119.422577	-217.009949	938.806580
3965.663928	-100.895386	-213.912338	944.358887
3965.667249	-81.900650	-211.165405	949.326660
3965.670567	-62.204563	-207.249557	954.353027
3965.673861	-42.859150	-203.918182	957.099976
3965.677653	-22.637058	-200.002335	959.613098
3965.680972	-2.181179	-195.560501	960.723572
3965.683894	17.398012	-189.949738	959.554626
3965.687293	37.678551	-184.865005	957.801331
3965.690640	58.777321	-179.488022	954.703674
3965.693958	79.291641	-172.883698	949.677307
3965.697289	98.870834	-167.214508	945.118652
3965.701082	119.151367	-160.084167	937.929871
3965.704023	138.964355	-153.304504	929.279968
3965.707345	157.959091	-146.115723	919.636475
3965.711096	177.479843	-138.693161	909.700745
3965.714396	195.247223	-130.861481	897.193481
3965.717728	213.014618	-123.088249	883.809448
3965.721122	230.255981	-115.022789	871.302185
3965.724426	247.205139	-107.541786	856.690857
3965.727732	262.576263	-100.060783	841.202820
3965.731057	277.304504	-92.813553	824.779663
3965.734379	290.454712	-85.215660	807.830505
3965.737654	303.137329	-77.617767	790.705994
3965.741008	315.644653	-70.954994	772.529480
3965.744367	326.924591	-63.590881	753.827026
3965.747667	336.977203	-57.278786	736.059631
3965.750975	347.146698	-51.375801	716.831055
3965.754289	355.095245	-45.239044	698.362366
3965.757610	361.758026	-39.686733	679.484497
3965.760987	368.713043	-34.894215	660.372864
3965.764355	374.615997	-30.861485	641.904114
3965.767656	380.109863	-26.361193	623.376953
3965.771003	385.019287	-21.919346	604.908264
3965.774772	387.883087	-18.587961	586.497925
3965.778368	390.571594	-15.022794	568.263000
3965.781715	393.201630	-11.457627	550.554016
3965.785030	394.662781	-8.009352	532.961975
3965.788362	395.247223	-5.320865	516.480408
3965.791699	395.714783	-3.216832	499.180603
3965.795030	395.539429	-0.879018	482.757446
3965.798360	395.247223	1.341906	467.327881
3965.801700	394.370544	3.796609	450.320312
3965.805031	392.383392	5.549971	434.715363
3965.808362	390.863800	7.478666	419.519562
3965.811691	388.467560	9.641146	404.966705
3965.815037	385.954407	11.219170	390.764465
3965.818394	383.791931	12.797194	376.211548
3965.821693	380.168335	14.492109	363.295135
3965.825036	377.362946	16.537697	350.028046
3965.828366	373.622437	17.823494	336.585632
3965.831692	369.940399	19.576855	324.428986
3965.835026	366.433655	21.096437	311.278778
3965.838363	361.758026	23.025133	299.063690
3965.841690	357.257721	24.427820	287.842194
3965.845024	352.815887	26.005842	276.036224
3965.848361	348.257141	27.057859	264.697845
3965.851687	342.997070	28.402102	254.294556
3965.855028	337.970764	30.038576	244.125061
3965.858357	333.645813	31.324373	234.364685
3965.861712	328.151947	31.908827	226.416107
3965.865023	323.359436	33.077736	216.538864
3965.868356	318.040894	34.188194	207.596710
3965.871692	313.365265	35.240211	198.011688
3965.875018	308.163666	36.175339	190.822891
3965.878352	302.903564	37.110458	183.225021
3965.881691	297.994141	37.285797	174.750427
3965.885025	293.026306	37.928696	168.321442
3965.888351	287.590881	37.928696	161.015778
3965.891723	283.382812	38.746933	154.002319
3965.895016	278.122742	38.980713	147.514893
3965.898353	273.271759	38.571594	142.021027
3965.901690	268.537689	38.746933	136.410278
3965.905020	264.446503	38.863823	130.857971
3965.908355	259.595551	38.630035	125.831665
3965.911688	255.562820	38.571594	121.448273
3965.915451	250.770309	37.870247	116.831085
3965.918775	246.912918	37.636467	112.506134
3965.922126	242.997070	36.876678	108.824066
3965.925468	239.139679	37.285797	104.849792
3965.928803	235.223831	36.876678	101.050842
3965.932137	231.834015	36.350670	96.608994
3965.935482	227.099945	35.883110	93.978958
3965.938772	224.294571	35.473991	90.647583
3965.942108	220.963181	34.772644	88.017532
3965.945440	217.164230	34.305084	84.218582
3965.948784	214.066620	34.421974	81.354752
3965.952102	210.618347	33.603737	78.374054
3965.955437	206.994736	33.779076	75.802460
3965.958775	203.721802	33.311516	72.471069
3965.962128	200.624191	33.019287	70.425491
3965.965480	198.169495	32.785507	67.269424
3965.968798	194.487427	32.201050	64.639389
3965.972150	191.740494	32.025719	62.243130
3965.975444	189.052002	31.967272	60.665104
3965.978776	186.305084	31.616598	57.450611
3965.982104	183.441254	31.733488	56.164814
3965.985435	180.168320	31.265928	53.300991
3965.988771	177.246048	31.967272	51.489185
3965.992099	174.557571	31.791933	49.677380
3965.995432	171.985977	31.675043	47.748684
3965.998799	169.589706	30.973700	46.229107
3966.002168	165.907654	31.149035	43.540615
3966.005962	163.686722	31.441263	42.547047
3966.009203	161.348923	31.733488	40.326122
3966.012523	159.303329	31.207483	39.098774
3966.015852	156.848618	31.032145	37.812977
3966.019212	154.686142	31.090590	36.293392
3966.022548	152.406769	31.032145	35.182934
3966.025975	150.770309	31.382818	33.488018
3966.029253	148.549393	30.330801	32.962009
3966.032592	147.146698	30.564581	31.442432
3966.035855	145.334885	30.798365	30.974865
3966.039202	143.873764	30.272356	29.864407
3966.042554	142.880188	30.097021	29.163059
3966.045899	140.191696	29.980131	27.409698
3966.049276	139.256577	29.220339	27.643482
3966.052604	137.269424	28.986555	26.123901
3966.055947	136.217422	28.518991	26.123901
3966.059182	134.931625	28.986555	24.954998
3966.062523	133.762711	28.460546	24.838104
3966.065855	132.126236	27.992987	24.136761
3966.069226	131.191116	28.168322	22.734074
3966.072541	130.022217	27.408533	23.143188
3966.075956	128.736420	27.583868	22.617184
3966.079294	128.093506	27.291639	22.500294
3966.082591	126.749268	27.233194	21.682056
3966.085850	125.814133	27.174749	20.571594
3966.089218	124.879013	27.350088	20.688484
3966.092957	123.710114	26.648741	20.104031
3966.096352	123.125656	25.947397	19.227352
3966.099269	122.307419	26.005842	18.701344
3966.102594	121.021622	26.005842	18.233780
3966.105984	120.904739	25.772062	18.876675
3966.109606	119.794281	25.362944	18.000000
3966.112987	119.326706	25.538282	18.116890
3966.116363	118.333130	25.596727	16.947983
3966.119693	117.573349	25.479837	16.831093
3966.123053	116.755112	25.713617	15.954411
3966.126363	116.170654	26.005842	16.421970
3966.129660	115.001755	25.772062	15.837517
3966.132986	114.475739	25.538282	14.843952
3966.136337	113.891296	26.181181	14.317940
3966.139669	113.014603	25.830507	14.785503
3966.143030	112.839279	26.122736	14.317940
3966.146387	111.845703	25.947397	14.259495
3966.149706	111.553482	26.181181	13.265923
3966.153001	110.676796	26.707190	13.558151
3966.156377	110.793686	26.414961	13.090588
3966.159706	110.033890	25.830507	13.324368
3966.163018	109.390999	25.655172	12.623024
3966.166394	108.689651	26.473406	12.856808
3966.169683	108.864990	26.707190	12.564579
3966.172956	108.748093	26.648741	12.097015
3966.176372	108.222092	26.882524	13.090588
3966.179681	108.572769	26.765635	12.564579
3966.183006	108.455872	26.473406	12.506134
3966.186776	108.514313	26.707190	12.213909
3966.190177	108.046753	26.882524	12.623024
3966.193447	108.222092	26.707190	12.272354
3966.196725	108.748093	26.999414	12.447689
3966.200056	108.397430	26.940969	13.382812
3966.203363	108.631210	26.765635	12.623024
3966.206731	109.332550	27.350088	12.739914
3966.210025	109.332550	27.057859	13.558151
3966.213381	109.683228	27.057859	13.791931
3966.216655	110.150787	26.590296	13.616596
3966.219955	109.858566	26.999414	13.032143
3966.223229	110.618355	27.233194	14.025711
3966.226939	110.793686	27.057859	14.843952
3966.230271	111.202805	26.940969	15.019283
3966.233548	111.202805	27.116304	14.142605
3966.236851	111.261246	27.642313	14.551720
3966.240131	111.378143	27.759203	14.493279
3966.243451	112.663940	27.759203	14.785503
3966.246839	112.430161	27.759203	14.727058
3966.250137	112.722382	27.817648	15.428402
3966.253524	113.306839	28.402102	15.194622
3966.256822	113.715958	29.161890	15.662186
3966.260170	114.183517	28.869665	15.019283
3966.263463	114.475739	29.045000	14.843952
3966.266827	114.884857	29.454123	15.077732
3966.270155	114.943314	29.804792	15.895966
3966.273525	115.819992	29.980131	16.421970
3966.276845	115.819992	30.564581	16.655754
3966.280159	116.579773	30.564581	16.714199
3966.283472	117.281128	30.856810	16.947983
3966.286828	117.573349	31.441263	17.590878
3966.290612	118.508469	31.733488	17.532436
3966.293542	119.502045	31.850382	18.584454
3966.297279	119.677383	32.493279	18.409111
3966.300590	121.080078	33.837524	18.526005
3966.303970	121.430740	34.012856	18.935123
3966.307262	122.950317	34.305084	19.402687
3966.310675	124.119232	34.538864	19.870251
3966.313971	124.879013	35.532433	19.987141
3966.317292	126.164810	35.707771	20.863823
3966.320661	126.924606	35.707771	21.974281
3966.323999	128.619522	36.000000	22.850964
3966.327281	129.496201	36.818237	23.669197
3966.330659	131.074219	37.168907	24.253651
3966.334004	132.301575	37.519577	25.364109
3966.337327	133.996490	38.104034	25.948563
3966.340629	135.340729	38.220924	27.409698
3966.343940	137.327881	38.746933	28.052597
3966.347313	138.964355	39.214493	30.273525
3966.350619	140.425476	39.857391	30.624195
3966.354024	142.295731	40.032730	32.260670
3966.357301	143.815308	39.857391	32.085323
3966.360596	145.977783	40.675629	32.611340
3966.363958	147.438919	41.143188	34.715366
3966.367262	149.659851	41.260078	35.592045
3966.370583	151.004089	42.019867	37.696087
3966.373920	153.108124	42.721214	38.748104
3966.377651	154.978378	43.539452	40.793682
3966.380941	156.848618	43.773232	41.144360
3966.384278	158.894211	44.708359	42.488605
3966.387554	160.764465	45.760376	44.534184
3966.390926	162.634720	46.812393	44.884861
3966.394268	165.381653	47.396843	46.579777
3966.397586	167.661011	47.689072	48.040913
3966.400863	170.115723	48.507301	49.443600
3966.404180	171.985977	49.793098	51.489185
3966.407483	174.031555	51.137344	52.774982
3966.410835	176.369370	52.072472	54.820568
3966.414151	179.116302	53.182938	56.807713
3966.417489	181.980118	54.644066	58.327290
3966.420801	184.084167	55.462303	60.255993
3966.424111	187.123322	57.449448	62.535358
3966.427441	189.694916	58.443016	64.697830
3966.431231	192.617172	60.196381	67.620102
3966.434971	195.247223	60.722382	69.841019
3966.438297	198.169495	62.241966	72.821732
3966.441630	201.559311	63.293983	75.451782
3966.444969	204.306259	64.287552	77.906494
3966.448320	207.462296	66.040909	80.887192
3966.451649	210.735229	67.209816	84.218582
3966.454962	214.592636	68.963181	88.660431
3966.458296	218.157806	70.424316	92.693161
3966.461629	221.839859	71.710114	95.907654
3966.464964	225.638809	73.463470	100.700165
3966.468299	229.554642	74.632378	104.732895
3966.471628	233.353592	76.327293	109.350082
3966.474959	237.678543	77.613091	114.025711
3966.478297	241.652832	79.132675	118.467545
3966.481626	245.685562	79.834015	123.376968
3966.484964	249.367630	81.470490	129.396835
3966.488301	253.575684	82.990067	134.715363
3966.491628	258.426666	84.684982	140.501465
3966.494958	262.284058	86.204559	147.398010
3966.498299	266.667450	87.782585	153.242554
3966.501632	270.524841	88.600815	159.320862
3966.504955	275.200470	90.938629	165.983643
3966.508294	279.291656	92.399765	172.880173
3966.511621	283.967285	94.036232	178.900055
3966.514955	287.298645	95.672707	186.673294
3966.518305	291.448273	97.893631	193.511398
3966.521648	295.773224	100.757462	201.752197
3966.524959	300.039734	102.452362	208.999405
3966.528294	304.540009	103.679718	217.415527
3966.531625	308.397430	106.426643	225.890106
3966.534958	312.605499	109.524254	234.247803
3966.538288	316.930450	111.569847	242.956177
3966.541622	320.612518	114.492111	252.658081
3966.544958	323.885437	116.713036	263.119812
3966.548288	327.684387	119.401512	272.938629
3966.551623	331.834015	122.557564	282.991211
3966.554989	334.522491	124.836937	293.686737
3966.558292	338.204559	127.934547	305.083557
3966.561627	341.302155	130.564575	316.129730
3966.564952	343.990631	133.311508	328.987732
3966.568290	347.088257	136.233780	341.670349
3966.571614	349.192261	139.156036	353.417877
3966.574950	352.231445	142.136765	367.678558
3966.578280	354.393921	145.526581	381.004089
3966.581622	356.205750	147.572174	394.855652
3966.584956	357.783752	149.909988	409.817657
3966.588288	359.361786	152.306259	424.253662
3966.591657	360.121582	154.819397	440.267670
3966.594957	360.881348	156.514313	457.099915
3966.598315	361.056702	159.202789	473.815308
3966.601612	360.472229	160.663940	490.238464
3966.604958	359.478668	162.534180	507.479797
3966.608711	357.549957	163.118637	524.253662
3966.612037	356.322601	164.871994	542.839233
3966.615367	353.634125	166.040909	560.372864
3966.618703	350.711853	166.683807	579.192261
3966.622044	346.211548	167.911148	596.492126
3966.625365	342.003510	167.618927	615.895935
3966.628728	337.094116	168.554047	634.072449
3966.632058	330.781982	168.086487	652.541199
3966.635392	324.353027	167.560486	670.600830
3966.638716	317.573334	167.502045	687.842163
3966.642077	308.981873	166.976028	705.843384
3966.645368	299.630646	166.450012	723.026306
3966.648716	290.863831	166.099350	740.092346
3966.652041	280.811218	165.398010	756.807739
3966.655360	270.174164	164.170654	773.289246
3966.658699	257.666870	163.352417	789.244873
3966.662037	244.750443	161.774399	805.434265
3966.665397	231.658676	161.189941	819.052002
3966.668723	216.579773	159.728806	832.085266
3966.672104	201.909988	158.618347	845.586182
3966.675372	186.889542	156.864990	858.794861
3966.678710	170.758621	155.228516	869.607239
3966.682034	153.341904	153.299820	879.016907
3966.685403	136.275864	151.137329	889.069519
3966.688700	119.034485	149.676208	897.719421
3966.692033	100.039734	147.338394	905.317383
3966.695367	81.395676	143.831680	912.272339
3966.698718	62.634712	141.376968	917.240173
3966.702080	42.237286	138.454697	922.383362
3966.705391	22.365868	135.181763	926.123840
3966.708728	2.962009	131.207474	928.870850
3966.712455	-17.902981	126.531853	929.279968
3966.715832	-37.248394	121.973106	930.156677
3966.719115	-57.178257	117.239052	927.701904
3966.722473	-77.108124	111.569847	927.175964
3966.725822	-96.862656	106.075981	923.844482
3966.729209	-116.850983	99.997665	918.116882
3966.732531	-136.196381	94.153130	911.863220
3966.735785	-155.015793	87.724136	905.960205
3966.739136	-173.601410	80.769142	898.420776
3966.742443	-191.777908	73.814140	890.998230
3966.745842	-208.551727	67.385155	880.828735
3966.749146	-224.624207	59.845703	870.659241
3966.752529	-242.157806	53.241379	859.145508
3966.755881	-256.593811	46.695503	846.755066
3966.759239	-271.555817	39.448273	834.247864
3966.762439	-286.050262	32.493279	820.746948
3966.765780	-298.791351	25.713617	805.551086
3966.769115	-311.649353	18.992401	789.829285
3966.772472	-323.046173	13.498539	775.334900
3966.775807	-333.098785	7.361776	759.028625
3966.779193	-343.385162	1.634131	741.845703
3966.782524	-351.801300	-3.567505	724.604309
3966.785860	-359.691406	-8.243134	707.888916
3966.789156	-367.230865	-14.029222	690.881348
3966.792451	-374.010529	-17.828171	672.880188
3966.796226	-379.679749	-21.101110	656.515442
3966.799152	-384.296906	-24.607832	637.929871
3966.802576	-389.673859	-27.646992	620.162476
3966.805876	-392.187042	-30.919930	602.628845
3966.809619	-395.284607	-33.023964	585.855042
3966.812934	-398.148468	-35.770897	569.139648
3966.816300	-399.025116	-37.641144	551.956726
3966.819661	-399.960236	-39.745178	534.364685
3966.823019	-400.720032	-41.089420	517.766174
3966.826334	-400.778503	-42.725891	501.576843
3966.829639	-400.310913	-43.777908	485.270630
3966.832977	-399.609589	-45.180595	469.490356
3966.836306	-397.973114	-45.823494	453.826996
3966.839718	-396.044403	-46.758621	438.222076
3966.843028	-394.700165	-48.219757	423.084747
3966.846349	-391.485718	-49.622444	408.181183
3966.849701	-388.914062	-50.440674	393.920532
3966.852989	-385.465820	-51.375801	380.478058
3966.856301	-382.426666	-51.901810	366.626495
3966.859700	-378.686157	-52.953827	353.476318
3966.863045	-374.711853	-53.947403	340.209229
3966.866380	-370.094696	-54.590302	327.468140
3966.869682	-366.237274	-54.940971	314.902374
3966.872978	-361.853912	-55.642319	303.330200
3966.876326	-357.002930	-56.577438	291.874908
3966.879626	-353.028656	-57.337227	280.594971
3966.883006	-347.885468	-58.447693	270.659271
3966.886326	-343.794250	-58.915253	259.671539
3966.889632	-339.177094	-58.915253	250.320282
3966.892994	-333.624786	-59.558151	240.735229
3966.896778	-328.423157	-59.441261	231.033295
3966.900130	-323.455292	-59.791931	222.149628
3966.903014	-318.428986	-60.201050	214.084152
3966.906750	-313.344269	-59.675041	205.668030
3966.910047	-307.850372	-60.201050	197.310333
3966.913389	-302.882507	-60.317940	189.829330
3966.916696	-297.388672	-59.558151	182.698990
3966.920054	-292.946838	-59.090591	175.802444
3966.923393	-286.868500	-58.447693	169.081238
3966.926711	-282.835785	-58.447693	163.119812
3966.930036	-277.692566	-58.155464	156.866150
3966.933393	-272.958496	-57.571014	151.430725
3966.936664	-268.165985	-57.337227	145.410858
3966.940007	-263.607269	-56.051430	139.858566
3966.943315	-259.048523	-55.057861	134.890701
3966.946634	-254.372894	-54.356522	130.565750
3966.950036	-249.697235	-53.772064	125.656342
3966.953348	-245.722961	-53.129166	120.688477
3966.956673	-241.865570	-52.836937	116.538864
3966.960123	-238.125092	-51.258911	113.207474
3966.963407	-233.975464	-50.265343	108.765625
