time (s)	magX	magY	magZ
1826.992265	291.272949	43.597893	104.090012
1826.995598	295.831665	43.948570	108.181168
1826.998934	300.624207	45.117477	112.856796
1827.002261	305.182922	46.111046	117.590881
1827.005598	310.852142	46.695503	121.623611
1827.008964	315.352417	48.565750	127.701920
1827.012263	320.787842	48.448860	132.845108
1827.015598	325.521912	50.845116	139.507889
1827.018930	330.548218	51.721802	144.884857
1827.022259	335.223846	52.832268	151.255402
1827.025600	340.951477	54.176506	158.970184
1827.028931	347.029816	55.520752	164.697845
1827.032260	352.114532	56.572769	171.419052
1827.035594	357.959076	58.209236	178.900055
1827.038931	363.043823	59.553474	185.971939
1827.042256	368.829926	60.956161	193.628296
1827.045597	373.914642	62.125076	202.511978
1827.048927	379.876099	63.352425	210.811218
1827.052283	386.188171	64.755112	218.935120
1827.055588	392.032715	66.508476	227.994141
1827.058949	398.111053	67.911163	237.170044
1827.062257	403.838684	69.606079	247.456451
1827.065596	410.559906	71.008766	257.625946
1827.068923	415.995331	72.528343	268.730560
1827.072258	422.307434	74.106377	278.783173
1827.076008	428.619507	75.801285	291.232025
1827.079345	434.113373	76.970192	302.628845
1827.082680	439.022797	78.957336	314.376373
1827.086012	444.750427	80.652252	326.766815
1827.089361	451.062531	82.697838	340.326111
1827.092679	456.147278	84.217422	353.826996
1827.096074	461.582703	85.561661	367.620087
1827.099363	467.018127	87.607246	381.763885
1827.102708	471.401520	89.068382	395.966095
1827.106032	476.895355	91.055527	411.512573
1827.109347	481.512573	92.808884	426.591461
1827.112680	485.603760	94.328468	443.832825
1827.116017	489.578033	95.497375	460.957336
1827.119337	493.376953	97.426071	477.205139
1827.122678	496.591461	99.413208	493.920532
1827.126013	499.163025	101.283455	511.804749
1827.129344	502.728210	103.445938	530.565735
1827.132695	504.773804	104.965523	549.969604
1827.136041	506.644043	106.777321	569.198120
1827.139403	507.929871	109.290474	588.660461
1827.142773	508.689636	111.336067	608.999390
1827.146013	508.806549	113.089424	628.520142
1827.149353	508.280548	114.375221	648.333130
1827.152676	507.345428	115.894798	669.548828
1827.156007	506.527161	117.998833	690.472229
1827.159347	503.838654	119.343086	712.739929
1827.162694	500.974884	120.862648	734.423096
1827.166444	496.825256	122.557564	756.398560
1827.169368	491.798950	124.018715	778.257141
1827.173211	487.123322	125.713631	800.992371
1827.176096	480.694336	127.408531	823.727661
1827.179758	473.505524	128.694321	845.761536
1827.183122	465.966125	129.746338	868.146118
1827.186421	457.666870	131.675034	889.537109
1827.189789	448.081818	132.317932	910.402039
1827.193129	436.977203	133.077728	932.611328
1827.196508	425.171234	134.305084	954.119263
1827.199862	413.540619	134.129745	975.217957
1827.203142	399.922852	135.181763	996.258362
1827.206444	386.071320	134.947968	1016.246643
1827.209753	371.927521	134.947968	1034.189453
1827.213099	356.147278	135.240204	1053.534790
1827.216445	339.198120	134.655762	1070.600952
1827.219776	322.073639	134.947968	1087.842285
1827.223173	304.130920	134.772644	1104.499146
1827.226530	285.895966	133.077728	1120.045654
1827.229770	266.959686	132.668610	1135.066040
1827.233114	246.679123	131.382812	1147.164307
1827.236422	225.872589	130.389252	1159.671631
1827.239776	204.949142	129.220337	1171.302246
1827.243113	182.447678	127.466972	1181.179443
1827.246514	159.946228	125.713631	1190.822998
1827.249853	137.444763	123.726479	1198.888428
1827.253155	114.358856	121.914680	1205.317383
1827.256862	91.156052	119.518410	1211.454224
1827.260220	68.011688	116.888374	1216.012939
1827.263596	43.172413	114.609009	1219.110474
1827.266955	19.443600	112.563408	1222.032715
1827.269839	-3.700764	109.232033	1221.799072
1827.273593	-27.955585	106.134430	1222.149658
1827.276888	-52.210400	103.153709	1220.045654
1827.280216	-75.647003	100.699013	1216.071289
1827.283544	-99.083588	97.309174	1212.272339
1827.286947	-121.818817	94.328468	1204.908325
1827.290283	-145.255417	91.289307	1199.239136
1827.293642	-167.406189	88.133255	1190.764526
1827.296965	-188.680313	85.094093	1182.231567
1827.300288	-210.305084	81.353592	1172.529541
1827.303716	-230.702515	78.197548	1161.950928
1827.307058	-250.573944	73.931038	1149.619019
1827.310386	-270.679138	71.300995	1136.644043
1827.313666	-290.024567	67.443596	1122.792603
1827.317001	-307.675049	63.819992	1107.070801
1827.320378	-325.033325	61.073051	1091.173706
1827.323661	-341.924011	58.092346	1077.088257
1827.327034	-357.645813	54.293396	1059.087158
1827.330375	-372.315613	50.552895	1042.839355
1827.333656	-386.576294	47.396843	1023.377014
1827.337007	-400.194031	43.539452	1005.726501
1827.340330	-412.233795	40.441849	987.666870
1827.343629	-423.572174	38.104034	969.022827
1827.347092	-434.384552	33.837524	951.080078
1827.350427	-444.144928	31.032145	930.857971
1827.353743	-453.203979	28.051432	910.635925
1827.357114	-461.444763	25.246054	892.050232
1827.360444	-469.510254	22.148451	872.587952
1827.363790	-476.114563	18.875509	853.417847
1827.367143	-482.192871	16.187025	833.897156
1827.370440	-486.985413	13.790766	814.668640
1827.373839	-492.654602	11.394506	795.323242
1827.377135	-496.161316	8.413792	776.796021
1827.380460	-499.375793	6.894213	758.794861
1827.383762	-503.233215	4.205727	739.390991
1827.387107	-505.454102	2.218585	720.863831
1827.390466	-506.506104	0.231443	703.271790
1827.393780	-508.902405	-1.580363	684.393921
1827.397090	-509.369934	-3.450614	667.503235
1827.400444	-510.071289	-5.437756	650.554016
1827.403791	-509.662231	-6.957335	633.546448
1827.407586	-509.194641	-8.593805	616.246582
1827.410908	-508.843933	-10.288720	600.115723
1827.414212	-507.382812	-12.275863	583.692566
1827.417554	-505.687927	-13.210988	567.444763
1827.420867	-503.291687	-14.964349	551.606079
1827.424279	-501.713623	-15.724138	536.293396
1827.427593	-498.966736	-16.483929	520.571594
1827.430956	-496.453552	-17.594389	506.369385
1827.434325	-493.706604	-18.354179	491.933350
1827.437663	-490.258301	-18.997078	478.841614
1827.440984	-486.284058	-19.698421	464.464050
1827.444428	-483.011108	-20.633549	450.904724
1827.447739	-479.036804	-21.627119	437.286957
1827.451062	-475.646973	-21.860901	424.604340
1827.454463	-472.140259	-22.620689	412.798370
1827.457797	-467.932190	-22.796026	400.641724
1827.461089	-463.957947	-23.848042	388.952637
1827.464442	-459.165405	-24.607832	377.555817
1827.467764	-455.191101	-24.198715	366.801880
1827.471112	-450.047943	-24.783169	356.457062
1827.474458	-446.132111	-25.426067	345.995300
1827.477817	-441.281128	-25.484512	335.942719
1827.481166	-437.540649	-26.302746	327.409698
1827.484538	-431.929901	-26.185856	316.889526
1827.487855	-427.546478	-26.887199	308.940979
1827.491225	-423.396851	-26.653419	300.232605
1827.494557	-418.136749	-26.887199	292.225616
1827.497871	-414.571594	-28.114553	284.335480
1827.501203	-409.779083	-27.880772	276.211578
1827.504503	-405.395660	-27.120981	268.905914
1827.507949	-401.304504	-28.114553	261.366455
1827.511259	-395.927551	-28.640562	254.119202
1827.514566	-391.602570	-28.757452	247.982452
1827.517954	-387.628296	-28.582117	241.495026
1827.521285	-383.361786	-28.699007	235.299805
1827.524591	-379.387482	-27.880772	228.637054
1827.527956	-375.004120	-28.406780	223.084747
1827.531292	-370.386902	-29.108124	216.655762
1827.534618	-366.529541	-29.166571	211.921677
1827.537958	-362.613708	-28.991234	206.720047
1827.541306	-358.697845	-28.991234	201.167725
1827.544648	-353.613098	-29.225016	197.544128
1827.548001	-350.632385	-28.815897	192.459381
1827.551286	-346.307434	-28.991234	186.731720
1827.554620	-342.976044	-28.640562	182.289886
1827.557922	-339.410858	-28.465225	177.789597
1827.561347	-335.670380	-28.815897	173.639969
1827.564645	-332.280518	-28.640562	169.139679
1827.567985	-328.598480	-28.465225	165.691406
1827.571406	-324.799530	-28.640562	161.950897
1827.574722	-321.585052	-28.582117	157.742844
1827.578036	-317.786102	-28.757452	154.469894
1827.581407	-314.454712	-28.757452	151.138519
1827.584749	-311.181763	-27.997663	147.631790
1827.588124	-308.025726	-28.348335	144.008179
1827.591412	-304.869659	-27.880772	141.904144
1827.594751	-302.298096	-28.172998	138.280533
1827.598083	-299.551147	-28.406780	135.299820
1827.601404	-296.570435	-27.939219	132.669769
1827.604743	-294.524841	-27.413208	130.098175
1827.608180	-291.251923	-27.705437	127.526581
1827.611488	-288.738739	-27.705437	125.013443
1827.614786	-286.459381	-28.056108	122.324951
1827.618538	-283.770905	-27.822327	120.454697
1827.622201	-281.549957	-27.237873	117.357086
1827.625535	-279.445953	-27.471653	116.538864
1827.628873	-276.582123	-27.237873	114.551712
1827.632202	-274.711853	-27.763882	111.746338
1827.635534	-272.607849	-27.646992	109.876083
1827.638893	-271.497375	-26.887199	108.590286
1827.642200	-269.218018	-27.179428	107.187592
1827.645530	-266.704865	-27.471653	104.791351
1827.648868	-265.185272	-27.588545	103.797775
1827.652201	-263.490356	-27.705437	101.343063
1827.655529	-261.503204	-26.828754	101.109283
1827.658865	-259.925201	-27.120981	99.297485
1827.662193	-258.697845	-27.120981	98.128571
1827.665533	-257.587372	-27.822327	97.544113
1827.668877	-255.541779	-27.880772	95.147873
1827.672201	-254.197540	-27.530102	94.504959
1827.675526	-252.093506	-27.705437	93.160721
1827.678860	-250.983063	-27.646992	92.108719
1827.682233	-249.872620	-27.237873	91.232025
1827.685533	-248.995911	-27.588545	90.413788
1827.688864	-246.950317	-27.997663	89.420227
1827.692202	-246.482758	-26.945644	88.894211
1827.695535	-244.320282	-27.413208	87.433075
1827.698859	-243.852722	-27.822327	86.556396
1827.702190	-242.566925	-27.588545	85.913498
1827.705530	-242.450043	-27.705437	85.387497
1827.708855	-241.514923	-28.056108	84.452362
1827.712197	-240.112213	-28.114553	83.049683
1827.715524	-240.053772	-28.640562	83.692566
1827.718862	-239.001770	-28.114553	82.757446
1827.722197	-238.300415	-28.289890	82.406784
1827.725543	-237.540619	-28.056108	81.646988
1827.728859	-236.547058	-28.406780	80.887192
1827.732216	-235.378143	-28.348335	80.419632
1827.735522	-235.670380	-28.172998	79.250732
1827.738855	-235.027466	-28.231445	78.900055
1827.742194	-234.735229	-28.348335	78.315598
1827.745522	-234.267670	-28.699007	78.257156
1827.748860	-233.800110	-28.699007	77.731155
1827.752192	-233.566345	-28.757452	78.257156
1827.755524	-233.215668	-28.640562	77.555801
1827.758854	-233.274109	-28.699007	77.731155
1827.762188	-233.683228	-29.108124	77.964935
1827.765518	-233.274109	-28.932789	77.146698
1827.768886	-233.040314	-29.692577	77.848038
1827.772190	-232.806549	-29.108124	78.374054
1827.775527	-232.923462	-29.692577	77.322021
1827.778849	-233.741669	-29.984804	78.490936
1827.782182	-233.683228	-29.458796	77.731155
1827.785517	-234.209229	-30.160141	78.081818
1827.788852	-233.917023	-30.160141	79.192276
1827.792191	-234.676819	-30.452368	79.484512
1827.795535	-235.144379	-30.978374	79.133835
1827.799315	-234.793701	-30.803040	79.659836
1827.802605	-235.904175	-32.030396	79.893616
1827.805934	-236.313263	-32.147285	80.711868
1827.809282	-237.248383	-32.030396	81.296310
1827.812611	-237.715942	-31.796610	81.413208
1827.815940	-238.066650	-32.556400	81.997650
1827.819275	-238.300415	-32.673294	83.341904
1827.822607	-240.579773	-32.848625	84.043243
1827.825962	-241.456451	-32.965519	83.984802
1827.829307	-241.339569	-33.666862	84.919922
1827.832705	-242.216248	-33.900642	86.264160
1827.835947	-243.385162	-34.251316	86.381058
1827.839268	-243.969635	-34.718880	87.140854
1827.842635	-244.904755	-34.777321	87.199295
1827.845940	-246.482758	-35.361778	89.011108
1827.849264	-247.476318	-35.887787	89.712448
1827.852606	-248.586792	-35.712448	90.180008
1827.855954	-249.521912	-36.180012	91.758041
1827.859290	-250.281708	-36.822914	91.874924
1827.862633	-252.794861	-36.706020	93.452942
1827.865967	-253.905334	-37.524254	94.563400
1827.869288	-255.775574	-37.699593	95.440079
1827.872637	-257.119812	-38.167152	97.018112
1827.875938	-258.814728	-37.991817	97.953247
1827.879266	-260.158997	-38.459381	99.765045
1827.882598	-261.386353	-39.043835	99.998825
1827.885954	-263.315033	-39.219170	101.869080
1827.889708	-265.302185	-39.803623	103.388657
1827.893094	-266.237305	-40.504967	105.492691
1827.896442	-268.984222	-40.972530	106.778488
1827.899774	-271.088257	-41.381645	107.772064
1827.903020	-272.666290	-41.615429	109.876083
1827.906365	-274.361206	-42.258327	112.389236
1827.909689	-276.874329	-42.901226	113.967270
1827.913045	-279.095245	-43.544128	115.369965
1827.916376	-281.608429	-44.070137	117.766205
1827.919769	-283.829346	-45.122154	120.162476
1827.923096	-285.874939	-45.531273	122.792511
1827.926415	-288.621857	-45.881943	125.130325
1827.929681	-291.427246	-46.992401	128.169479
1827.933013	-294.583282	-47.576859	130.156631
1827.936356	-296.628876	-49.213326	133.371124
1827.939711	-299.142029	-49.213326	135.708939
1827.943133	-301.538300	-49.622444	138.806534
1827.946427	-304.752777	-50.616013	141.378128
1827.949765	-307.149048	-51.317360	144.884857
1827.953027	-310.480408	-51.784920	148.040909
1827.956349	-314.162476	-52.953827	150.963165
1827.959685	-316.909424	-54.005844	153.885437
1827.963038	-320.357697	-54.999420	157.918167
1827.966396	-322.987732	-55.466980	161.366440
1827.969758	-326.377563	-57.045006	165.749847
1827.973122	-329.475159	-57.746346	168.964340
1827.976470	-331.696106	-58.856812	173.289307
1827.980128	-335.845703	-59.908821	177.848038
1827.983463	-339.001770	-61.136177	181.237869
1827.986409	-342.566925	-61.545296	184.803040
1827.990181	-346.248962	-62.772652	189.887772
1827.993523	-349.989471	-63.824661	195.089417
1827.996863	-353.788452	-64.993568	199.239044
1828.000165	-356.886017	-66.279366	203.856216
1828.003522	-360.158997	-67.389832	208.181168
1828.006894	-364.250153	-68.441849	213.675034
1828.010218	-368.633575	-69.026306	218.993576
1828.013544	-372.841614	-71.071884	225.656311
1828.016867	-376.523651	-72.123901	230.507294
1828.020224	-379.679749	-73.760368	236.644073
1828.023538	-383.537109	-75.104614	242.605469
1828.026867	-387.978943	-76.624191	249.794281
1828.030243	-392.713043	-77.617767	256.106354
1828.033562	-396.336670	-79.137344	262.652222
1828.036883	-401.713623	-80.656929	270.951477
1828.040201	-404.694336	-82.527176	278.432495
1828.043559	-409.486847	-83.696083	285.562836
1828.046950	-413.344269	-85.332550	293.803619
1828.050257	-417.903015	-87.027473	301.635284
1828.053579	-422.987701	-88.722382	309.992981
1828.056893	-427.312683	-90.066628	318.818207
1828.060180	-431.812958	-91.936874	328.344818
1828.063544	-436.313263	-93.281120	337.929840
1828.066848	-441.222687	-95.385155	347.105774
1828.070222	-445.372314	-97.080070	356.807709
1828.073517	-448.353027	-99.300987	366.568085
1828.076867	-453.437775	-101.346581	377.088257
1828.080225	-458.230286	-103.216827	389.011108
1828.083564	-462.321442	-105.379311	400.174133
1828.086875	-464.776154	-106.898888	410.752777
1828.090301	-469.510254	-108.944473	422.091156
1828.093610	-473.776733	-111.457626	433.546448
1828.096940	-477.108093	-113.327881	447.222656
1828.100705	-481.608398	-115.373466	460.197540
1828.104077	-484.296936	-117.419052	471.652832
1828.107375	-487.219177	-119.347748	484.978333
1828.110639	-490.959656	-120.750435	498.187012
1828.114013	-494.817078	-124.140274	512.389221
1828.117315	-497.038025	-126.010521	526.182312
1828.120662	-499.317383	-128.523666	540.676819
1828.123985	-501.830505	-130.101700	554.820557
1828.127350	-504.343689	-132.264175	570.367004
1828.130718	-505.570984	-135.478668	584.627686
1828.134019	-507.675049	-137.407364	600.817078
1828.137336	-509.253113	-139.745178	616.305054
1828.140707	-510.071289	-141.264771	633.429565
1828.144000	-511.707825	-143.485687	649.268250
1828.147414	-512.116882	-145.414383	665.983643
1828.150760	-511.532471	-147.810638	682.056091
1828.154108	-511.240234	-149.037994	699.005249
1828.157426	-511.064880	-151.843369	715.895935
1828.160743	-509.603760	-153.772079	733.897095
1828.164036	-509.019287	-155.466980	752.658081
1828.167395	-506.038574	-157.045013	770.016357
1828.170682	-503.992981	-158.856812	788.017517
1828.174053	-501.479858	-160.960846	806.720032
1828.177374	-498.265320	-162.421982	825.071838
1828.180667	-493.823486	-164.409119	844.183472
1828.184055	-489.673889	-165.811813	862.535339
1828.187349	-484.238464	-167.740509	881.004089
1828.190755	-478.277039	-169.376968	899.472839
1828.194052	-472.490967	-170.195221	918.292175
1828.197801	-465.652832	-171.948563	936.819397
1828.201151	-458.054932	-172.474579	956.164795
1828.204542	-450.749268	-173.468155	973.873779
1828.207835	-442.274689	-174.987732	993.102356
1828.211185	-432.981873	-175.572189	1010.226746
1828.214520	-422.578644	-176.215088	1028.520264
1828.217857	-413.052002	-176.799545	1045.060303
1828.221198	-401.012299	-177.442444	1063.236694
1828.224499	-389.966125	-177.910004	1078.900024
1828.227863	-377.225037	-178.377563	1095.147949
1828.231158	-364.951477	-178.552902	1112.155518
1828.234528	-352.093506	-178.611343	1126.766846
1828.237824	-337.189941	-178.728241	1142.138062
1828.241146	-322.637054	-178.026901	1154.879150
1828.244452	-307.441284	-176.974869	1168.789062
1828.247802	-291.719482	-177.383987	1181.354858
1828.251157	-275.413208	-176.507309	1193.160767
1828.254461	-259.282288	-175.455307	1204.499146
1828.257766	-242.508484	-173.994171	1215.311523
1828.261066	-224.273529	-173.468155	1225.539551
1828.264402	-207.149048	-171.890137	1234.773804
1828.267770	-190.082993	-170.955002	1242.722412
1828.271128	-171.322021	-168.850983	1249.969727
1828.274453	-151.742844	-167.039154	1257.625977
1828.277858	-133.215668	-165.578018	1262.944580
1828.281142	-113.578018	-162.947998	1267.970825
1828.284493	-93.881943	-160.317947	1271.886597
1828.288268	-73.952072	-158.564590	1273.114014
1828.291157	-53.554653	-155.174759	1276.620850
1828.294506	-33.800121	-153.187607	1278.023437
1828.298241	-14.162479	-150.791351	1277.731201
1828.301589	6.351841	-148.102875	1276.679199
1828.304918	26.573933	-144.713043	1275.568726
1828.308261	46.737579	-142.199890	1272.062012
1828.311623	67.018112	-139.160736	1268.730713
1828.314955	86.597305	-135.946228	1264.347168
1828.318263	106.410278	-132.614853	1260.548218
1828.321601	125.872589	-128.932785	1253.710205
1828.324914	145.334885	-125.952072	1247.047485
1828.328336	163.978958	-122.679138	1238.864990
1828.331661	182.681458	-119.873756	1229.338501
1828.334982	200.916412	-115.957916	1219.753418
1828.338363	218.625366	-113.269432	1210.343750
1828.341661	236.684967	-109.353592	1198.713135
1828.344982	253.458801	-106.372879	1187.433105
1828.348330	269.589722	-103.684395	1174.984253
1828.351646	285.603760	-100.002335	1162.009399
1828.354990	300.916412	-96.320282	1148.683838
1828.358300	315.995331	-93.456459	1135.124512
1828.361605	330.665100	-90.241959	1121.682129
1828.364926	344.516632	-87.027473	1106.953979
1828.368234	357.959076	-83.812973	1090.998291
1828.371674	370.641724	-80.247803	1076.036255
1828.375009	383.441254	-77.033318	1060.431396
1828.378316	394.838104	-74.227936	1045.703125
1828.381709	405.241394	-71.130333	1026.942139
1828.385466	416.229095	-68.383400	1011.687927
1828.388797	426.281708	-65.110466	995.440002
1828.392124	435.282288	-62.363525	978.315613
1828.395464	443.230865	-59.850380	960.840454
1828.398824	451.296326	-57.161896	944.125061
1828.402128	459.887787	-54.239624	928.111023
1828.405459	466.725891	-51.083572	910.752747
1828.408791	473.563995	-48.862656	893.102295
1828.412126	479.350067	-46.057274	876.328430
1828.415455	485.369965	-43.427238	860.022217
1828.418791	490.746918	-41.615429	842.547058
